7496.94889	0.02522
7495.02016	0.01252
7493.09144	0.00392
7491.16272	0.00773
7489.23399	0.01853
7487.30527	0.02252
7485.37654	0.02276
7483.44782	0.02660
7481.51910	0.02647
7479.59037	0.01570
7477.66165	0.00394
7475.73293	0.00070
7473.80420	0.00531
7471.87548	0.01681
7469.94676	0.02645
7468.01803	0.02446
7466.08931	0.01971
7464.16058	0.01979
7462.23186	0.02052
7460.30314	0.02059
7458.37441	0.02061
7456.44569	0.01985
7454.51697	0.02103
7452.58824	0.02648
7450.65952	0.03099
7448.73079	0.03145
7446.80207	0.02978
7444.87335	0.02753
7442.94462	0.02854
7441.01590	0.03495
7439.08718	0.04123
7437.15845	0.03756
7435.22973	0.02718
7433.30101	0.02268
7431.37228	0.02798
7429.44356	0.03858
7427.51483	0.04336
7425.58611	0.03882
7423.65739	0.03049
7421.72866	0.02029
7419.79994	0.01638
7417.87122	0.01988
7415.94249	0.01897
7414.01377	0.01695
7412.08505	0.02514
7410.15632	0.03822
7408.22760	0.04454
7406.29887	0.04437
7404.37015	0.04263
7402.44143	0.03835
7400.51270	0.02375
7398.58398	0.00297
7396.65526	0.00000
7394.72653	0.01727
7392.79781	0.03015
7390.86908	0.02890
7388.94036	0.02493
7387.01164	0.02598
7385.08291	0.02809
7383.15419	0.02601
7381.22547	0.02515
7379.29674	0.03252
7377.36802	0.03951
7375.43930	0.03739
7373.51057	0.03174
7371.58185	0.02993
7369.65312	0.03317
7367.72440	0.03697
7365.79568	0.03801
7363.86695	0.03824
7361.93823	0.03803
7360.00951	0.03416
7358.08078	0.02697
7356.15206	0.02228
7354.22334	0.01927
7352.29461	0.01458
7350.36589	0.01465
7348.43716	0.02223
7346.50844	0.02878
7344.57972	0.02659
7342.65099	0.01801
7340.72227	0.01447
7338.79355	0.02042
7336.86482	0.02423
7334.93610	0.02279
7333.00737	0.02620
7331.07865	0.03533
7329.14993	0.04207
7327.22120	0.04295
7325.29248	0.03966
7323.36376	0.03479
7321.43503	0.02698
7319.50631	0.01796
7317.57759	0.01438
7315.64886	0.01313
7313.72014	0.01162
7311.79141	0.01507
7309.86269	0.02102
7307.93397	0.02676
7306.00524	0.03339
7304.07652	0.03391
7302.14780	0.02636
7300.21907	0.02084
7298.29035	0.01836
7296.36163	0.01422
7294.43290	0.01671
7292.50418	0.02840
7290.57545	0.03344
7288.64673	0.02847
7286.71801	0.02766
7284.78928	0.03424
7282.86056	0.03645
7280.93184	0.02985
7279.00311	0.02044
7277.07439	0.01418
7275.14566	0.01421
7273.21694	0.01751
7271.28822	0.01678
7269.35949	0.01443
7267.43077	0.01839
7265.50205	0.02683
7263.57332	0.03093
7261.64460	0.02739
7259.71588	0.02590
7257.78715	0.03088
7255.85843	0.03202
7253.92970	0.02877
7252.00098	0.02623
7250.07226	0.02250
7248.14353	0.01825
7246.21481	0.01417
7244.28609	0.00982
7242.35736	0.01046
7240.42864	0.01495
7238.49992	0.01222
7236.57119	0.00401
7234.64247	0.00199
7232.71374	0.01034
7230.78502	0.02466
7228.85630	0.03544
7226.92757	0.03963
7224.99885	0.03847
7223.07013	0.03275
7221.14140	0.02666
7219.21268	0.02168
7217.28396	0.01972
7215.35523	0.02195
7213.42651	0.02295
7211.49778	0.02162
7209.56906	0.02133
7207.64034	0.02189
7205.71161	0.02534
7203.78289	0.03410
7201.85417	0.03933
7199.92544	0.03389
7197.99672	0.02614
7196.06799	0.02559
7194.13927	0.03162
7192.21055	0.03700
7190.28182	0.03524
7188.35310	0.03114
7186.42438	0.03264
7184.49565	0.03326
7182.56693	0.02886
7180.63821	0.03003
7178.70948	0.03799
7176.78076	0.04052
7174.85203	0.03624
7172.92331	0.03144
7170.99459	0.02368
7169.06586	0.01613
7167.13714	0.01892
7165.20842	0.02741
7163.27969	0.02997
7161.35097	0.02644
7159.42225	0.02510
7157.49352	0.02971
7155.56480	0.03663
7153.63607	0.04054
7151.70735	0.04068
7149.77863	0.03928
7147.84990	0.03218
7145.92118	0.02149
7143.99246	0.02227
7142.06373	0.03319
7140.13501	0.03616
7138.20628	0.02925
7136.27756	0.02383
7134.34884	0.02485
7132.42011	0.03043
7130.49139	0.03262
7128.56267	0.02693
7126.63394	0.02157
7124.70522	0.02484
7122.77650	0.03131
7120.84777	0.03044
7118.91905	0.01950
7116.99032	0.00669
7115.06160	0.00763
7113.13288	0.02255
7111.20415	0.03243
7109.27543	0.03007
7107.34671	0.02321
7105.41798	0.01848
7103.48926	0.01815
7101.56054	0.02037
7099.63181	0.02312
7097.70309	0.02604
7095.77436	0.02807
7093.84564	0.02757
7091.91692	0.02870
7089.98819	0.03555
7088.05947	0.04174
7086.13075	0.04199
7084.20202	0.03821
7082.27330	0.03374
7080.34457	0.03214
7078.41585	0.03328
7076.48713	0.03366
7074.55840	0.03096
7072.62968	0.02757
7070.70096	0.02906
7068.77223	0.03331
7066.84351	0.03321
7064.91479	0.03227
7062.98606	0.03632
7061.05734	0.03977
7059.12861	0.03595
7057.19989	0.02600
7055.27117	0.01783
7053.34244	0.01903
7051.41372	0.02565
7049.48500	0.02739
7047.55627	0.02327
7045.62755	0.02048
7043.69883	0.01883
7041.77010	0.01443
7039.84138	0.01403
7037.91265	0.01991
7035.98393	0.02465
7034.05521	0.02674
7032.12648	0.02631
7030.19776	0.02447
7028.26904	0.02539
7026.34031	0.03108
7024.41159	0.04018
7022.48286	0.04528
7020.55414	0.04267
7018.62542	0.03979
7016.69669	0.03989
7014.76797	0.03656
7012.83925	0.03177
7010.91052	0.03400
7008.98180	0.03916
7007.05308	0.04000
7005.12435	0.03824
7003.19563	0.03532
7001.26690	0.03182
6999.33818	0.02920
6997.40946	0.02645
6995.48073	0.02424
6993.55201	0.02571
6991.62329	0.02676
6989.69456	0.02355
6987.76584	0.02428
6985.83712	0.03082
6983.90839	0.03273
6981.97967	0.02952
6980.05094	0.02994
6978.12222	0.03295
6976.19350	0.03202
6974.26477	0.02543
6972.33605	0.01843
6970.40733	0.01874
6968.47860	0.02318
6966.54988	0.02317
6964.62115	0.02211
6962.69243	0.02507
6960.76371	0.02807
6958.83498	0.02851
6956.90626	0.02976
6954.97754	0.03145
6953.04881	0.02919
6951.12009	0.02644
6949.19137	0.02842
6947.26264	0.03037
6945.33392	0.02803
6943.40519	0.02536
6941.47647	0.02439
6939.54775	0.02148
6937.61902	0.01764
6935.69030	0.01869
6933.76158	0.02305
6931.83285	0.02654
6929.90413	0.02872
6927.97541	0.02889
6926.04668	0.02904
6924.11796	0.02927
6922.18923	0.02895
6920.26051	0.03218
6918.33179	0.03600
6916.40306	0.03579
6914.47434	0.03484
6912.54562	0.03267
6910.61689	0.02740
6908.68817	0.02316
6906.75944	0.02248
6904.83072	0.02504
6902.90200	0.02854
6900.97327	0.02997
6899.04455	0.03091
6897.11583	0.03146
6895.18710	0.02943
6893.25838	0.02778
6891.32966	0.02937
6889.40093	0.03155
6887.47221	0.03020
6885.54348	0.02748
6883.61476	0.02832
6881.68604	0.02853
6879.75731	0.02609
6877.82859	0.03019
6875.89987	0.03969
6873.97114	0.04199
6872.04242	0.03623
6870.11370	0.03087
6868.18497	0.02882
6866.25625	0.02852
6864.32752	0.02861
6862.39880	0.02901
6860.47008	0.03123
6858.54135	0.03445
6856.61263	0.03423
6854.68391	0.03067
6852.75518	0.02869
6850.82646	0.02904
6848.89773	0.02958
6846.96901	0.02894
6845.04029	0.02779
6843.11156	0.02845
6841.18284	0.02970
6839.25412	0.02961
6837.32539	0.02879
6835.39667	0.02734
6833.46795	0.02737
6831.53922	0.03002
6829.61050	0.03194
6827.68177	0.03229
6825.75305	0.03076
6823.82433	0.02664
6821.89560	0.02597
6819.96688	0.03003
6818.03816	0.03078
6816.10943	0.02817
6814.18071	0.02810
6812.25199	0.03001
6810.32326	0.03207
6808.39454	0.03483
6806.46581	0.03451
6804.53709	0.02740
6802.60837	0.01887
6800.67964	0.01737
6798.75092	0.02462
6796.82220	0.03382
6794.89347	0.03762
6792.96475	0.03536
6791.03603	0.03090
6789.10730	0.02889
6787.17858	0.03171
6785.24985	0.03693
6783.32113	0.03998
6781.39241	0.03817
6779.46368	0.03350
6777.53496	0.02998
6775.60624	0.02903
6773.67751	0.03114
6771.74879	0.03506
6769.82006	0.03608
6767.89134	0.03283
6765.96262	0.02958
6764.03389	0.03026
6762.10517	0.03382
6760.17645	0.03645
6758.24772	0.03613
6756.31900	0.03243
6754.39028	0.02778
6752.46155	0.02603
6750.53283	0.02824
6748.60410	0.03318
6746.67538	0.03666
6744.74666	0.03639
6742.81793	0.03472
6740.88921	0.03308
6738.96049	0.03360
6737.03176	0.03731
6735.10304	0.03958
6733.17432	0.03687
6731.24559	0.03302
6729.31687	0.03187
6727.38814	0.02852
6725.45942	0.02026
6723.53070	0.01606
6721.60197	0.02119
6719.67325	0.02962
6717.74453	0.03535
6715.81580	0.03687
6713.88708	0.03636
6711.95835	0.03619
6710.02963	0.03671
6708.10091	0.03861
6706.17218	0.03965
6704.24346	0.03671
6702.31474	0.03229
6700.38601	0.03084
6698.45729	0.03369
6696.52857	0.03719
6694.59984	0.03605
6692.67112	0.03227
6690.74239	0.03120
6688.81367	0.03011
6686.88495	0.02594
6684.95622	0.02539
6683.02750	0.03130
6681.09878	0.03593
6679.17005	0.03751
6677.24133	0.04106
6675.31261	0.04290
6673.38388	0.03838
6671.45516	0.03396
6669.52643	0.03591
6667.59771	0.04106
6665.66899	0.04189
6663.74026	0.03830
6661.81154	0.03658
6659.88282	0.03706
6657.95409	0.03927
6656.02537	0.04289
6654.09664	0.04241
6652.16792	0.03881
6650.23920	0.03732
6648.31047	0.03558
6646.38175	0.03168
6644.45303	0.03098
6642.52430	0.03534
6640.59558	0.03842
6638.66686	0.03787
6636.73813	0.03640
6634.80941	0.03488
6632.88068	0.03452
6630.95196	0.03451
6629.02324	0.03295
6627.09451	0.03227
6625.16579	0.03434
6623.23707	0.03623
6621.30834	0.03596
6619.37962	0.03605
6617.45090	0.03707
6615.52217	0.03672
6613.59345	0.03473
6611.66472	0.03200
6609.73600	0.03014
6607.80728	0.03025
6605.87855	0.03128
6603.94983	0.03195
6602.02111	0.03175
6600.09238	0.03140
6598.16366	0.03255
6596.23493	0.03576
6594.30621	0.03835
6592.37749	0.03796
6590.44876	0.03655
6588.52004	0.03587
6586.59132	0.03469
6584.66259	0.03279
6582.73387	0.03176
6580.80515	0.03129
6578.87642	0.02982
6576.94770	0.02912
6575.01897	0.03060
6573.09025	0.03207
6571.16153	0.03432
6569.23280	0.03907
6567.30408	0.04307
6565.37536	0.04329
6563.44663	0.03950
6561.51791	0.03381
6559.58919	0.03087
6557.66046	0.03222
6555.73174	0.03467
6553.80301	0.03628
6551.87429	0.03773
6549.94557	0.03800
6548.01684	0.03561
6546.08812	0.03367
6544.15940	0.03589
6542.23067	0.04094
6540.30195	0.04394
6538.37322	0.04167
6536.44450	0.03700
6534.51578	0.03459
6532.58705	0.03428
6530.65833	0.03449
6528.72961	0.03583
6526.80088	0.03937
6524.87216	0.04358
6522.94344	0.04390
6521.01471	0.03994
6519.08599	0.03654
6517.15726	0.03454
6515.22854	0.03265
6513.29982	0.03244
6511.37109	0.03365
6509.44237	0.03538
6507.51365	0.03739
6505.58492	0.03708
6503.65620	0.03604
6501.72748	0.03759
6499.79875	0.03885
6497.87003	0.03766
6495.94130	0.03592
6494.01258	0.03622
6492.08386	0.03910
6490.15513	0.04109
6488.22641	0.03943
6486.29769	0.03512
6484.36896	0.03082
6482.44024	0.02900
6480.51151	0.03102
6478.58279	0.03603
6476.65407	0.04022
6474.72534	0.04081
6472.79662	0.03915
6470.86790	0.03774
6468.93917	0.03672
6467.01045	0.03489
6465.08173	0.03279
6463.15300	0.03168
6461.22428	0.03126
6459.29555	0.03061
6457.36683	0.03003
6455.43811	0.03002
6453.50938	0.02946
6451.58066	0.02876
6449.65194	0.03149
6447.72321	0.03800
6445.79449	0.04257
6443.86577	0.04053
6441.93704	0.03428
6440.00832	0.03124
6438.07959	0.03404
6436.15087	0.03784
6434.22215	0.03997
6432.29342	0.04175
6430.36470	0.04296
6428.43598	0.04209
6426.50725	0.04002
6424.57853	0.03919
6422.64980	0.03937
6420.72108	0.03995
6418.79236	0.04030
6416.86363	0.03859
6414.93491	0.03702
6413.00619	0.03744
6411.07746	0.03731
6409.14874	0.03759
6407.22002	0.04054
6405.29129	0.04363
6403.36257	0.04354
6401.43384	0.04100
6399.50512	0.03928
6397.57640	0.03917
6395.64767	0.03973
6393.71895	0.04053
6391.79023	0.04022
6389.86150	0.03814
6387.93278	0.03518
6386.00406	0.03304
6384.07533	0.03272
6382.14661	0.03424
6380.21788	0.03710
6378.28916	0.03823
6376.36044	0.03558
6374.43171	0.03096
6372.50299	0.02753
6370.57427	0.02780
6368.64554	0.03027
6366.71682	0.03340
6364.78810	0.03763
6362.85937	0.04009
6360.93065	0.03923
6359.00192	0.03660
6357.07320	0.03326
6355.14448	0.03076
6353.21575	0.03066
6351.28703	0.03332
6349.35831	0.03665
6347.42958	0.03731
6345.50086	0.03527
6343.57213	0.03485
6341.64341	0.03784
6339.71469	0.04041
6337.78596	0.04127
6335.85724	0.04144
6333.92852	0.03941
6331.99979	0.03628
6330.07107	0.03545
6328.14235	0.03715
6326.21362	0.03951
6324.28490	0.04137
6322.35617	0.04267
6320.42745	0.04415
6318.49873	0.04564
6316.57000	0.04496
6314.64128	0.04270
6312.71256	0.04084
6310.78383	0.03718
6308.85511	0.03225
6306.92639	0.03099
6304.99766	0.03372
6303.06894	0.03763
6301.14021	0.04100
6299.21149	0.04194
6297.28277	0.04048
6295.35404	0.03921
6293.42532	0.03882
6291.49660	0.03785
6289.56787	0.03605
6287.63915	0.03600
6285.71042	0.03928
6283.78170	0.04289
6281.85298	0.04308
6279.92425	0.03977
6277.99553	0.03682
6276.06681	0.03676
6274.13808	0.03717
6272.20936	0.03675
6270.28064	0.03835
6268.35191	0.04193
6266.42319	0.04325
6264.49446	0.04233
6262.56574	0.04290
6260.63702	0.04380
6258.70829	0.04216
6256.77957	0.03973
6254.85085	0.03919
6252.92212	0.03977
6250.99340	0.03882
6249.06468	0.03676
6247.13595	0.03642
6245.20723	0.03766
6243.27850	0.03825
6241.34978	0.03843
6239.42106	0.03928
6237.49233	0.04011
6235.56361	0.04084
6233.63489	0.04213
6231.70616	0.04300
6229.77744	0.04219
6227.84871	0.03955
6225.91999	0.03602
6223.99127	0.03381
6222.06254	0.03507
6220.13382	0.03911
6218.20510	0.04201
6216.27637	0.04122
6214.34765	0.03826
6212.41893	0.03654
6210.49020	0.03834
6208.56148	0.04223
6206.63275	0.04470
6204.70403	0.04407
6202.77531	0.04188
6200.84658	0.04137
6198.91786	0.04312
6196.98914	0.04346
6195.06041	0.04010
6193.13169	0.03599
6191.20297	0.03524
6189.27424	0.03783
6187.34552	0.04010
6185.41679	0.04032
6183.48807	0.03937
6181.55935	0.03731
6179.63062	0.03583
6177.70190	0.03800
6175.77318	0.04223
6173.84445	0.04451
6171.91573	0.04362
6169.98700	0.04095
6168.05828	0.03879
6166.12956	0.03822
6164.20083	0.03808
6162.27211	0.03730
6160.34339	0.03680
6158.41466	0.03660
6156.48594	0.03609
6154.55722	0.03739
6152.62849	0.04025
6150.69977	0.04021
6148.77104	0.03716
6146.84232	0.03482
6144.91360	0.03529
6142.98487	0.03854
6141.05615	0.04129
6139.12743	0.04087
6137.19870	0.03949
6135.26998	0.03979
6133.34126	0.04182
6131.41253	0.04388
6129.48381	0.04354
6127.55508	0.04087
6125.62636	0.03866
6123.69764	0.03844
6121.76891	0.03946
6119.84019	0.04051
6117.91147	0.04104
6115.98274	0.04118
6114.05402	0.04076
6112.12529	0.04030
6110.19657	0.04104
6108.26785	0.04207
6106.33912	0.04175
6104.41040	0.04013
6102.48168	0.03834
6100.55295	0.03751
6098.62423	0.03739
6096.69551	0.03756
6094.76678	0.03913
6092.83806	0.04173
6090.90933	0.04302
6088.98061	0.04242
6087.05189	0.04126
6085.12316	0.04062
6083.19444	0.04112
6081.26572	0.04260
6079.33699	0.04343
6077.40827	0.04194
6075.47955	0.03871
6073.55082	0.03662
6071.62210	0.03728
6069.69337	0.03921
6067.76465	0.04057
6065.83593	0.04076
6063.90720	0.04015
6061.97848	0.04042
6060.04976	0.04220
6058.12103	0.04329
6056.19231	0.04252
6054.26358	0.04144
6052.33486	0.04114
6050.40614	0.04219
6048.47741	0.04493
6046.54869	0.04706
6044.61997	0.04570
6042.69124	0.04203
6040.76252	0.03945
6038.83380	0.03873
6036.90507	0.03915
6034.97635	0.04037
6033.04762	0.04165
6031.11890	0.04217
6029.19018	0.04202
6027.26145	0.04232
6025.33273	0.04302
6023.40401	0.04255
6021.47528	0.04167
6019.54656	0.04182
6017.61784	0.04250
6015.68911	0.04317
6013.76039	0.04305
6011.83166	0.04272
6009.90294	0.04435
6007.97422	0.04664
6006.04549	0.04666
6004.11677	0.04432
6002.18805	0.04076
6000.25932	0.03791
5998.33060	0.03729
5996.40187	0.03769
5994.47315	0.03837
5992.54443	0.03970
5990.61570	0.04068
5988.68698	0.04090
5986.75826	0.04065
5984.82953	0.03981
5982.90081	0.03842
5980.97209	0.03680
5979.04336	0.03653
5977.11464	0.03899
5975.18591	0.04168
5973.25719	0.04220
5971.32847	0.04253
5969.39974	0.04354
5967.47102	0.04341
5965.54230	0.04233
5963.61357	0.04123
5961.68485	0.04027
5959.75613	0.03952
5957.82740	0.03872
5955.89868	0.03908
5953.96995	0.04198
5952.04123	0.04499
5950.11251	0.04501
5948.18378	0.04346
5946.25506	0.04232
5944.32634	0.04084
5942.39761	0.03934
5940.46889	0.03895
5938.54017	0.04027
5936.61144	0.04305
5934.68272	0.04482
5932.75399	0.04461
5930.82527	0.04407
5928.89655	0.04398
5926.96782	0.04435
5925.03910	0.04453
5923.11038	0.04393
5921.18165	0.04332
5919.25293	0.04218
5917.32420	0.03970
5915.39548	0.03796
5913.46676	0.03898
5911.53803	0.04111
5909.60931	0.04219
5907.68059	0.04290
5905.75186	0.04370
5903.82314	0.04351
5901.89442	0.04327
5899.96569	0.04412
5898.03697	0.04424
5896.10824	0.04268
5894.17952	0.04207
5892.25080	0.04337
5890.32207	0.04460
5888.39335	0.04523
5886.46463	0.04515
5884.53590	0.04429
5882.60718	0.04373
5880.67846	0.04336
5878.74973	0.04278
5876.82101	0.04247
5874.89228	0.04245
5872.96356	0.04229
5871.03484	0.04206
5869.10611	0.04213
5867.17739	0.04217
5865.24867	0.04265
5863.31994	0.04466
5861.39122	0.04672
5859.46249	0.04737
5857.53377	0.04669
5855.60505	0.04456
5853.67632	0.04256
5851.74760	0.04199
5849.81888	0.04198
5847.89015	0.04218
5845.96143	0.04253
5844.03271	0.04326
5842.10398	0.04476
5840.17526	0.04564
5838.24653	0.04480
5836.31781	0.04339
5834.38909	0.04273
5832.46036	0.04354
5830.53164	0.04540
5828.60292	0.04629
5826.67419	0.04529
5824.74547	0.04375
5822.81675	0.04233
5820.88802	0.04103
5818.95930	0.04126
5817.03057	0.04242
5815.10185	0.04203
5813.17313	0.04076
5811.24440	0.04015
5809.31568	0.04006
5807.38696	0.04067
5805.45823	0.04239
5803.52951	0.04416
5801.60078	0.04481
5799.67206	0.04498
5797.74334	0.04534
5795.81461	0.04557
5793.88589	0.04527
5791.95717	0.04495
5790.02844	0.04580
5788.09972	0.04717
5786.17100	0.04759
5784.24227	0.04718
5782.31355	0.04673
5780.38482	0.04669
5778.45610	0.04670
5776.52738	0.04620
5774.59865	0.04512
5772.66993	0.04323
5770.74121	0.04115
5768.81248	0.04053
5766.88376	0.04154
5764.95504	0.04322
5763.02631	0.04515
5761.09759	0.04608
5759.16886	0.04558
5757.24014	0.04502
5755.31142	0.04506
5753.38269	0.04552
5751.45397	0.04580
5749.52525	0.04501
5747.59652	0.04324
5745.66780	0.04176
5743.73907	0.04162
5741.81035	0.04256
5739.88163	0.04375
5737.95290	0.04448
5736.02418	0.04479
5734.09546	0.04519
5732.16673	0.04471
5730.23801	0.04339
5728.30929	0.04293
5726.38056	0.04342
5724.45184	0.04440
5722.52311	0.04539
5720.59439	0.04598
5718.66567	0.04684
5716.73694	0.04728
5714.80822	0.04638
5712.87950	0.04581
5710.95077	0.04654
5709.02205	0.04650
5707.09333	0.04428
5705.16460	0.04236
5703.23588	0.04337
5701.30715	0.04560
5699.37843	0.04646
5697.44971	0.04656
5695.52098	0.04661
5693.59226	0.04644
5691.66354	0.04693
5689.73481	0.04760
5687.80609	0.04737
5685.87736	0.04662
5683.94864	0.04539
5682.01992	0.04501
5680.09119	0.04621
5678.16247	0.04601
5676.23375	0.04354
5674.30502	0.04213
5672.37630	0.04324
5670.44758	0.04461
5668.51885	0.04421
5666.59013	0.04269
5664.66140	0.04152
5662.73268	0.04178
5660.80396	0.04315
5658.87523	0.04377
5656.94651	0.04321
5655.01779	0.04299
5653.08906	0.04453
5651.16034	0.04723
5649.23162	0.04849
5647.30289	0.04762
5645.37417	0.04597
5643.44544	0.04432
5641.51672	0.04367
5639.58800	0.04450
5637.65927	0.04588
5635.73055	0.04673
5633.80183	0.04616
5631.87310	0.04520
5629.94438	0.04561
5628.01565	0.04624
5626.08693	0.04592
5624.15821	0.04563
5622.22948	0.04483
5620.30076	0.04333
5618.37204	0.04359
5616.44331	0.04591
5614.51459	0.04758
5612.58587	0.04727
5610.65714	0.04553
5608.72842	0.04351
5606.79969	0.04297
5604.87097	0.04433
5602.94225	0.04548
5601.01352	0.04540
5599.08480	0.04530
5597.15608	0.04561
5595.22735	0.04530
5593.29863	0.04388
5591.36991	0.04270
5589.44118	0.04305
5587.51246	0.04378
5585.58373	0.04394
5583.65501	0.04473
5581.72629	0.04575
5579.79756	0.04542
5577.86884	0.04494
5575.94012	0.04541
5574.01139	0.04549
5572.08267	0.04528
5570.15394	0.04595
5568.22522	0.04659
5566.29650	0.04640
5564.36777	0.04555
5562.43905	0.04418
5560.51033	0.04345
5558.58160	0.04450
5556.65288	0.04652
5554.72416	0.04730
5552.79543	0.04591
5550.86671	0.04434
5548.93798	0.04454
5547.00926	0.04611
5545.08054	0.04766
5543.15181	0.04827
5541.22309	0.04754
5539.29437	0.04574
5537.36564	0.04422
5535.43692	0.04389
5533.50820	0.04447
5531.57947	0.04544
5529.65075	0.04590
5527.72202	0.04546
5525.79330	0.04502
5523.86458	0.04481
5521.93585	0.04491
5520.00713	0.04581
5518.07841	0.04653
5516.14968	0.04658
5514.22096	0.04695
5512.29224	0.04736
5510.36351	0.04702
5508.43479	0.04597
5506.50606	0.04520
5504.57734	0.04616
5502.64862	0.04802
5500.71989	0.04828
5498.79117	0.04732
5496.86245	0.04723
5494.93372	0.04744
5493.00500	0.04709
5491.07627	0.04680
5489.14755	0.04584
5487.21883	0.04436
5485.29010	0.04453
5483.36138	0.04625
5481.43266	0.04736
5479.50393	0.04699
5477.57521	0.04526
5475.64649	0.04290
5473.71776	0.04209
5471.78904	0.04371
5469.86031	0.04539
5467.93159	0.04539
5466.00287	0.04508
5464.07414	0.04510
5462.14542	0.04438
5460.21670	0.04344
5458.28797	0.04313
5456.35925	0.04328
5454.43053	0.04402
5452.50180	0.04485
5450.57308	0.04489
5448.64435	0.04452
5446.71563	0.04463
5444.78691	0.04467
5442.85818	0.04401
5440.92946	0.04377
5439.00074	0.04458
5437.07201	0.04540
5435.14329	0.04573
5433.21456	0.04578
5431.28584	0.04498
5429.35712	0.04338
5427.42839	0.04308
5425.49967	0.04490
5423.57095	0.04708
5421.64222	0.04856
5419.71350	0.04906
5417.78478	0.04786
5415.85605	0.04480
5413.92733	0.04166
5411.99860	0.04087
5410.06988	0.04229
5408.14116	0.04393
5406.21243	0.04520
5404.28371	0.04642
5402.35499	0.04712
5400.42626	0.04672
5398.49754	0.04551
5396.56882	0.04419
5394.64009	0.04389
5392.71137	0.04524
5390.78264	0.04662
5388.85392	0.04605
5386.92520	0.04466
5384.99647	0.04560
5383.06775	0.04860
5381.13903	0.05014
5379.21030	0.04848
5377.28158	0.04495
5375.35285	0.04284
5373.42413	0.04384
5371.49541	0.04578
5369.56668	0.04620
5367.63796	0.04542
5365.70924	0.04483
5363.78051	0.04431
5361.85179	0.04421
5359.92307	0.04585
5357.99434	0.04740
5356.06562	0.04602
5354.13689	0.04358
5352.20817	0.04364
5350.27945	0.04528
5348.35072	0.04538
5346.42200	0.04333
5344.49328	0.04159
5342.56455	0.04214
5340.63583	0.04280
5338.70711	0.04208
5336.77838	0.04237
5334.84966	0.04476
5332.92093	0.04701
5330.99221	0.04715
5329.06349	0.04586
5327.13476	0.04508
5325.20604	0.04514
5323.27732	0.04520
5321.34859	0.04522
5319.41987	0.04599
5317.49114	0.04751
5315.56242	0.04905
5313.63370	0.04950
5311.70497	0.04814
5309.77625	0.04592
5307.84753	0.04479
5305.91880	0.04503
5303.99008	0.04549
5302.06136	0.04628
5300.13263	0.04769
5298.20391	0.04856
5296.27518	0.04784
5294.34646	0.04575
5292.41774	0.04386
5290.48901	0.04391
5288.56029	0.04560
5286.63157	0.04687
5284.70284	0.04669
5282.77412	0.04605
5280.84540	0.04625
5278.91667	0.04765
5276.98795	0.04913
5275.05922	0.04874
5273.13050	0.04711
5271.20178	0.04628
5269.27305	0.04582
5267.34433	0.04480
5265.41561	0.04378
5263.48688	0.04371
5261.55816	0.04465
5259.62943	0.04530
5257.70071	0.04487
5255.77199	0.04368
5253.84326	0.04276
5251.91454	0.04308
5249.98582	0.04402
5248.05709	0.04444
5246.12837	0.04401
5244.19965	0.04396
5242.27092	0.04554
5240.34220	0.04704
5238.41347	0.04664
5236.48475	0.04527
5234.55603	0.04421
5232.62730	0.04359
5230.69858	0.04357
5228.76986	0.04371
5226.84113	0.04317
5224.91241	0.04248
5222.98369	0.04247
5221.05496	0.04325
5219.12624	0.04453
5217.19751	0.04583
5215.26879	0.04686
5213.34007	0.04702
5211.41134	0.04571
5209.48262	0.04333
5207.55390	0.04140
5205.62517	0.04122
5203.69645	0.04240
5201.76772	0.04340
5199.83900	0.04343
5197.91028	0.04317
5195.98155	0.04331
5194.05283	0.04331
5192.12411	0.04246
5190.19538	0.04120
5188.26666	0.04059
5186.33794	0.04106
5184.40921	0.04233
5182.48049	0.04333
5180.55176	0.04346
5178.62304	0.04341
5176.69432	0.04319
5174.76559	0.04253
5172.83687	0.04206
5170.90815	0.04199
5168.97942	0.04195
5167.05070	0.04190
5165.12198	0.04261
5163.19325	0.04441
5161.26453	0.04577
5159.33580	0.04563
5157.40708	0.04505
5155.47836	0.04450
5153.54963	0.04374
5151.62091	0.04340
5149.69219	0.04347
5147.76346	0.04356
5145.83474	0.04388
5143.90601	0.04415
5141.97729	0.04424
5140.04857	0.04445
5138.11984	0.04443
5136.19112	0.04421
5134.26240	0.04447
5132.33367	0.04489
5130.40495	0.04493
5128.47623	0.04464
5126.54750	0.04398
5124.61878	0.04338
5122.69005	0.04355
5120.76133	0.04430
5118.83261	0.04492
5116.90388	0.04509
5114.97516	0.04504
5113.04644	0.04510
5111.11771	0.04505
5109.18899	0.04466
5107.26027	0.04437
5105.33154	0.04454
5103.40282	0.04521
5101.47409	0.04606
5099.54537	0.04644
5097.61665	0.04631
5095.68792	0.04614
5093.75920	0.04583
5091.83048	0.04531
5089.90175	0.04486
5087.97303	0.04437
5086.04431	0.04378
5084.11558	0.04345
5082.18686	0.04344
5080.25813	0.04358
5078.32941	0.04381
5076.40069	0.04381
5074.47196	0.04379
5072.54324	0.04454
5070.61452	0.04552
5068.68579	0.04557
5066.75707	0.04496
5064.82834	0.04463
5062.89962	0.04498
5060.97090	0.04564
5059.04217	0.04593
5057.11345	0.04566
5055.18473	0.04532
5053.25600	0.04549
5051.32728	0.04581
5049.39856	0.04587
5047.46983	0.04612
5045.54111	0.04644
5043.61238	0.04624
5041.68366	0.04583
5039.75494	0.04574
5037.82621	0.04570
5035.89749	0.04566
5033.96877	0.04615
5032.04004	0.04675
5030.11132	0.04674
5028.18260	0.04656
5026.25387	0.04655
5024.32515	0.04666
5022.39642	0.04681
5020.46770	0.04671
5018.53898	0.04663
5016.61025	0.04691
5014.68153	0.04709
5012.75281	0.04685
5010.82408	0.04684
5008.89536	0.04745
5006.96663	0.04794
5005.03791	0.04812
5003.10919	0.04822
5001.18046	0.04789
4999.25174	0.04731
4997.32302	0.04709
4995.39429	0.04733
4993.46557	0.04777
4991.53685	0.04802
4989.60812	0.04787
4987.67940	0.04773
4985.75067	0.04819
4983.82195	0.04881
4981.89323	0.04852
4979.96450	0.04744
4978.03578	0.04702
4976.10706	0.04805
4974.17833	0.04955
4972.24961	0.04995
4970.32089	0.04920
4968.39216	0.04858
4966.46344	0.04848
4964.53471	0.04870
4962.60599	0.04936
4960.67727	0.04978
4958.74854	0.04919
4956.81982	0.04821
4954.89110	0.04792
4952.96237	0.04832
4951.03365	0.04880
4949.10492	0.04902
4947.17620	0.04911
4945.24748	0.04936
4943.31875	0.04950
4941.39003	0.04916
4939.46131	0.04852
4937.53258	0.04821
4935.60386	0.04852
4933.67514	0.04892
4931.74641	0.04907
4929.81769	0.04923
4927.88896	0.04962
4925.96024	0.05001
4924.03152	0.05037
4922.10279	0.05073
4920.17407	0.05046
4918.24535	0.04951
4916.31662	0.04887
4914.38790	0.04920
4912.45918	0.04994
4910.53045	0.05013
4908.60173	0.04949
4906.67300	0.04898
4904.74428	0.04968
4902.81556	0.05084
4900.88683	0.05095
4898.95811	0.05018
4897.02939	0.04944
4895.10066	0.04911
4893.17194	0.04958
4891.24321	0.05060
4889.31449	0.05106
4887.38577	0.05083
4885.45704	0.05072
4883.52832	0.05104
4881.59960	0.05138
4879.67087	0.05111
4877.74215	0.05034
4875.81343	0.04960
4873.88470	0.04939
4871.95598	0.04985
4870.02725	0.05019
4868.09853	0.05000
4866.16981	0.05003
4864.24108	0.05049
4862.31236	0.05060
4860.38364	0.04991
4858.45491	0.04916
4856.52619	0.04904
4854.59747	0.04926
4852.66874	0.04956
4850.74002	0.04992
4848.81129	0.05018
4846.88257	0.05033
4844.95385	0.05061
4843.02512	0.05108
4841.09640	0.05124
4839.16768	0.05079
4837.23895	0.05022
4835.31023	0.05009
4833.38150	0.05047
4831.45278	0.05112
4829.52406	0.05143
4827.59533	0.05105
4825.66661	0.05078
4823.73789	0.05093
4821.80916	0.05071
4819.88044	0.05058
4817.95172	0.05114
4816.02299	0.05132
4814.09427	0.05067
4812.16554	0.05027
4810.23682	0.05040
4808.30810	0.05060
4806.37937	0.05082
4804.45065	0.05095
4802.52193	0.05062
4800.59320	0.05018
4798.66448	0.05029
4796.73576	0.05074
4794.80703	0.05125
4792.87831	0.05159
4790.94958	0.05126
4789.02086	0.05068
4787.09214	0.05085
4785.16341	0.05145
4783.23469	0.05122
4781.30597	0.05019
4779.37724	0.04938
4777.44852	0.04929
4775.51979	0.04983
4773.59107	0.05053
4771.66235	0.05107
4769.73362	0.05124
4767.80490	0.05104
4765.87618	0.05119
4763.94745	0.05180
4762.01873	0.05175
4760.09001	0.05064
4758.16128	0.04953
4756.23256	0.04931
4754.30383	0.04949
4752.37511	0.04952
4750.44639	0.04956
4748.51766	0.04957
4746.58894	0.04969
4744.66022	0.05012
4742.73149	0.05039
4740.80277	0.04996
4738.87405	0.04941
4736.94532	0.04963
4735.01660	0.05015
4733.08787	0.05016
4731.15915	0.04996
4729.23043	0.04988
4727.30170	0.04949
4725.37298	0.04912
4723.44426	0.04950
4721.51553	0.05031
4719.58681	0.05091
4717.65808	0.05125
4715.72936	0.05144
4713.80064	0.05148
4711.87191	0.05129
4709.94319	0.05092
4708.01447	0.05049
4706.08574	0.05031
4704.15702	0.05059
4702.22830	0.05083
4700.29957	0.05076
4698.37085	0.05075
4696.44212	0.05099
4694.51340	0.05119
4692.58468	0.05114
4690.65595	0.05122
4688.72723	0.05156
4686.79851	0.05158
4684.86978	0.05117
4682.94106	0.05089
4681.01234	0.05064
4679.08361	0.05033
4677.15489	0.05055
4675.22616	0.05122
4673.29744	0.05154
4671.36872	0.05134
4669.43999	0.05119
4667.51127	0.05136
4665.58255	0.05147
4663.65382	0.05160
4661.72510	0.05229
4659.79638	0.05291
4657.86765	0.05245
4655.93893	0.05168
4654.01020	0.05167
4652.08148	0.05189
4650.15276	0.05187
4648.22403	0.05205
4646.29531	0.05237
4644.36659	0.05242
4642.43786	0.05225
4640.50914	0.05184
4638.58041	0.05140
4636.65169	0.05160
4634.72297	0.05197
4632.79424	0.05182
4630.86552	0.05181
4628.93680	0.05201
4627.00807	0.05200
4625.07935	0.05240
4623.15063	0.05339
4621.22190	0.05389
4619.29318	0.05329
4617.36445	0.05215
4615.43573	0.05160
4613.50701	0.05232
4611.57828	0.05329
4609.64956	0.05343
4607.72084	0.05327
4605.79211	0.05357
4603.86339	0.05430
4601.93467	0.05488
4600.00594	0.05478
4598.07722	0.05434
4596.14849	0.05405
4594.21977	0.05371
4592.29105	0.05347
4590.36232	0.05386
4588.43360	0.05452
4586.50488	0.05471
4584.57615	0.05424
4582.64743	0.05355
4580.71870	0.05322
4578.78998	0.05330
4576.86126	0.05371
4574.93253	0.05431
4573.00381	0.05462
4571.07509	0.05470
4569.14636	0.05489
4567.21764	0.05477
4565.28892	0.05413
4563.36019	0.05373
4561.43147	0.05404
4559.50274	0.05464
4557.57402	0.05528
4555.64530	0.05590
4553.71657	0.05614
4551.78785	0.05597
4549.85913	0.05587
4547.93040	0.05603
4546.00168	0.05590
4544.07296	0.05511
4542.14423	0.05442
4540.21551	0.05438
4538.28678	0.05467
4536.35806	0.05518
4534.42934	0.05604
4532.50061	0.05685
4530.57189	0.05706
4528.64317	0.05679
4526.71444	0.05658
4524.78572	0.05646
4522.85699	0.05605
4520.92827	0.05563
4518.99955	0.05586
4517.07082	0.05670
4515.14210	0.05741
4513.21338	0.05756
4511.28465	0.05752
4509.35593	0.05731
4507.42721	0.05674
4505.49848	0.05615
4503.56976	0.05590
4501.64103	0.05615
4499.71231	0.05668
4497.78359	0.05712
4495.85486	0.05748
4493.92614	0.05779
4491.99742	0.05778
4490.06869	0.05749
4488.13997	0.05756
4486.21125	0.05809
4484.28252	0.05843
4482.35380	0.05845
4480.42507	0.05817
4478.49635	0.05754
4476.56763	0.05704
4474.63890	0.05736
4472.71018	0.05855
4470.78146	0.05968
4468.85273	0.05983
4466.92401	0.05914
4464.99528	0.05864
4463.06656	0.05896
4461.13784	0.05962
4459.20911	0.06001
4457.28039	0.06022
4455.35167	0.06044
4453.42294	0.06073
4451.49422	0.06109
4449.56550	0.06094
4447.63677	0.06026
4445.70805	0.05993
4443.77932	0.06032
4441.85060	0.06098
4439.92188	0.06149
4437.99315	0.06193
4436.06443	0.06232
4434.13571	0.06219
4432.20698	0.06156
4430.27826	0.06117
4428.34954	0.06132
4426.42081	0.06162
4424.49209	0.06180
4422.56336	0.06182
4420.63464	0.06173
4418.70592	0.06168
4416.77719	0.06174
4414.84847	0.06199
4412.91975	0.06247
4410.99102	0.06246
4409.06230	0.06172
4407.13357	0.06118
4405.20485	0.06135
4403.27613	0.06199
4401.34740	0.06236
4399.41868	0.06211
4397.48996	0.06191
4395.56123	0.06206
4393.63251	0.06221
4391.70379	0.06230
4389.77506	0.06233
4387.84634	0.06236
4385.91761	0.06268
4383.98889	0.06320
4382.06017	0.06373
4380.13144	0.06436
4378.20272	0.06471
4376.27400	0.06423
4374.34527	0.06374
4372.41655	0.06399
4370.48783	0.06418
4368.55910	0.06400
4366.63038	0.06411
4364.70165	0.06443
4362.77293	0.06443
4360.84421	0.06410
4358.91548	0.06391
4356.98676	0.06433
4355.05804	0.06487
4353.12931	0.06475
4351.20059	0.06422
4349.27186	0.06398
4347.34314	0.06405
4345.41442	0.06408
4343.48569	0.06409
4341.55697	0.06402
4339.62825	0.06383
4337.69952	0.06388
4335.77080	0.06440
4333.84208	0.06485
4331.91335	0.06478
4329.98463	0.06470
4328.05590	0.06501
4326.12718	0.06524
4324.19846	0.06524
4322.26973	0.06544
4320.34101	0.06549
4318.41229	0.06491
4316.48356	0.06420
4314.55484	0.06410
4312.62612	0.06455
4310.69739	0.06477
4308.76867	0.06447
4306.83994	0.06439
4304.91122	0.06478
4302.98250	0.06500
4301.05377	0.06477
4299.12505	0.06443
4297.19633	0.06442
4295.26760	0.06471
4293.33888	0.06495
4291.41015	0.06495
4289.48143	0.06484
4287.55271	0.06489
4285.62398	0.06517
4283.69526	0.06531
4281.76654	0.06497
4279.83781	0.06461
4277.90909	0.06466
4275.98037	0.06486
4274.05164	0.06479
4272.12292	0.06443
4270.19419	0.06417
4268.26547	0.06443
4266.33675	0.06504
4264.40802	0.06523
4262.47930	0.06495
4260.55058	0.06488
4258.62185	0.06479
4256.69313	0.06435
4254.76441	0.06391
4252.83568	0.06361
4250.90696	0.06362
4248.97823	0.06414
4247.04951	0.06460
4245.12079	0.06442
4243.19206	0.06401
4241.26334	0.06394
4239.33462	0.06406
4237.40589	0.06405
4235.47717	0.06410
4233.54845	0.06417
4231.61972	0.06402
4229.69100	0.06391
4227.76227	0.06396
4225.83355	0.06402
4223.90483	0.06423
4221.97610	0.06464
4220.04738	0.06493
4218.11866	0.06482
4216.18993	0.06452
4214.26121	0.06454
4212.33248	0.06488
4210.40376	0.06491
4208.47504	0.06456
4206.54631	0.06430
4204.61759	0.06403
4202.68887	0.06376
4200.76014	0.06389
4198.83142	0.06412
4196.90270	0.06405
4194.97397	0.06403
4193.04525	0.06423
4191.11652	0.06440
4189.18780	0.06443
4187.25908	0.06449
4185.33035	0.06453
4183.40163	0.06453
4181.47291	0.06482
4179.54418	0.06534
4177.61546	0.06549
4175.68674	0.06545
4173.75801	0.06556
4171.82929	0.06538
4169.90056	0.06494
4167.97184	0.06491
4166.04312	0.06521
4164.11439	0.06544
4162.18567	0.06570
4160.25695	0.06601
4158.32822	0.06619
4156.39950	0.06605
4154.47077	0.06558
4152.54205	0.06506
4150.61333	0.06479
4148.68460	0.06465
4146.75588	0.06446
4144.82716	0.06430
4142.89843	0.06432
4140.96971	0.06462
4139.04099	0.06472
4137.11226	0.06426
4135.18354	0.06390
4133.25481	0.06420
4131.32609	0.06483
4129.39737	0.06538
4127.46864	0.06576
4125.53992	0.06589
4123.61120	0.06594
4121.68247	0.06590
4119.75375	0.06566
4117.82503	0.06541
4115.89630	0.06534
4113.96758	0.06535
4112.03885	0.06545
4110.11013	0.06576
4108.18141	0.06609
4106.25268	0.06620
4104.32396	0.06624
4102.39524	0.06648
4100.46651	0.06668
4098.53779	0.06643
4096.60906	0.06601
4094.68034	0.06604
4092.75162	0.06627
4090.82289	0.06610
4088.89417	0.06582
4086.96545	0.06603
4085.03672	0.06653
4083.10800	0.06668
4081.17928	0.06635
4079.25055	0.06596
4077.32183	0.06600
4075.39310	0.06648
4073.46438	0.06708
4071.53566	0.06761
4069.60693	0.06771
4067.67821	0.06736
4065.74949	0.06722
4063.82076	0.06741
4061.89204	0.06739
4059.96332	0.06701
4058.03459	0.06665
4056.10587	0.06687
4054.17714	0.06746
4052.24842	0.06748
4050.31970	0.06712
4048.39097	0.06708
4046.46225	0.06715
4044.53353	0.06723
4042.60480	0.06751
4040.67608	0.06764
4038.74735	0.06749
4036.81863	0.06743
4034.88991	0.06758
4032.96118	0.06766
4031.03246	0.06770
4029.10374	0.06776
4027.17501	0.06769
4025.24629	0.06758
4023.31757	0.06766
4021.38884	0.06770
4019.46012	0.06749
4017.53139	0.06754
4015.60267	0.06808
4013.67395	0.06862
4011.74522	0.06874
4009.81650	0.06859
4007.88778	0.06868
4005.95905	0.06895
4004.03033	0.06888
4002.10161	0.06862
4000.17288	0.06874
3998.24416	0.06889
3996.31543	0.06851
3994.38671	0.06799
3992.45799	0.06762
3990.52926	0.06733
3988.60054	0.06755
3986.67182	0.06804
3984.74309	0.06814
3982.81437	0.06817
3980.88564	0.06846
3978.95692	0.06842
3977.02820	0.06797
3975.09947	0.06765
3973.17075	0.06766
3971.24203	0.06775
3969.31330	0.06779
3967.38458	0.06788
3965.45586	0.06801
3963.52713	0.06794
3961.59841	0.06762
3959.66968	0.06735
3957.74096	0.06720
3955.81224	0.06728
3953.88351	0.06735
3951.95479	0.06662
3950.02607	0.06536
3948.09734	0.06497
3946.16862	0.06525
3944.23990	0.06488
3942.31117	0.06483
3940.38245	0.06628
3938.45372	0.06774
3936.52500	0.06773
3934.59628	0.06613
3932.66755	0.06428
3930.73883	0.06440
3928.81011	0.06587
3926.88138	0.06605
3924.95266	0.06495
3923.02393	0.06427
3921.09521	0.06371
3919.16649	0.06282
3917.23776	0.06293
3915.30904	0.06474
3913.38032	0.06677
3911.45159	0.06782
3909.52287	0.06755
3907.59415	0.06478
3905.66542	0.05935
3903.73670	0.05442
3901.80797	0.05303
3899.87925	0.05540
3897.95053	0.06041
3896.02180	0.06444
3894.09308	0.06390
3892.16436	0.06088
3890.23563	0.06050
3888.30691	0.06100
3886.37819	0.05932
3884.44946	0.05851
3882.52074	0.05888
3880.59201	0.05948
3878.66329	0.06214
3876.73457	0.06347
3874.80584	0.06108
3872.87712	0.05745
3870.94840	0.05449
3869.01967	0.05465
3867.09095	0.05673
3865.16222	0.05708
3863.23350	0.05791
3861.30478	0.06108
3859.37605	0.06311
3857.44733	0.06014
3855.51861	0.05124
3853.58988	0.04397
3851.66116	0.04948
3849.73244	0.05954
3847.80371	0.06477
3845.87499	0.06439
3843.94626	0.06091
3842.01754	0.05709
3840.08882	0.05366
3838.16009	0.05195
3836.23137	0.05404
3834.30265	0.05748
3832.37392	0.05986
3830.44520	0.06182
3828.51648	0.06304
3826.58775	0.06296
3824.65903	0.06097
3822.73030	0.05578
3820.80158	0.05208
3818.87286	0.05389
3816.94413	0.05655
3815.01541	0.06035
3813.08669	0.06574
3811.15796	0.06796
3809.22924	0.06519
3807.30052	0.06079
3805.37179	0.05882
3803.44307	0.05684
3801.51434	0.05492
3799.58562	0.05704
3797.65690	0.06025
3795.72817	0.06317
3793.79945	0.06702
3791.87073	0.06984
3789.94200	0.07059
3788.01328	0.06984
3786.08455	0.06851
3784.15583	0.06784
3782.22711	0.06706
3780.29838	0.06564
3778.36966	0.06647
3776.44094	0.06943
3774.51221	0.07046
3772.58349	0.06796
3770.65477	0.06435
3768.72604	0.06332
3766.79732	0.06464
3764.86859	0.06642
3762.93987	0.06723
3761.01115	0.06539
3759.08242	0.06321
3757.15370	0.06342
3755.22498	0.06286
3753.29625	0.05805
3751.36753	0.05189
3749.43881	0.05135
3747.51008	0.05302
3745.58136	0.05153
3743.65263	0.05357
3741.72391	0.06090
3739.79519	0.06382
3737.86646	0.05942
3735.93774	0.05320
3734.00902	0.05316
3732.08029	0.06007
3730.15157	0.06720
3728.22284	0.06956
3726.29412	0.06881
3724.36540	0.06923
3722.43667	0.07203
3720.50795	0.07659
3718.57923	0.08181
3716.65050	0.08520
3714.72178	0.08419
3712.79306	0.07990
3710.86433	0.07937
3708.93561	0.08587
3707.00688	0.09346
3705.07816	0.09745
3703.14944	0.09872
3701.22071	0.10179
3699.29199	0.10763
3697.36327	0.11272
3695.43454	0.11527
3693.50582	0.11481
3691.57710	0.11202
3689.64837	0.11173
3687.71965	0.11889
3685.79092	0.12890
3683.86220	0.13555
3681.93348	0.13828
3680.00475	0.13811
3678.07603	0.13514
3676.14731	0.13313
3674.21858	0.13846
3672.28986	0.14499
3670.36113	0.14823
3668.43241	0.15505
3666.50369	0.16479
3664.57496	0.17142
3662.64624	0.17458
3660.71752	0.17575
3658.78879	0.17481
3656.86007	0.17325
3654.93135	0.17350
3653.00262	0.17193
3651.07390	0.16582
3649.14517	0.16226
3647.21645	0.16845
3645.28773	0.17851
3643.35900	0.18520
3641.43028	0.18799
3639.50156	0.18941
3637.57283	0.19021
3635.64411	0.18978
3633.71539	0.18820
3631.78666	0.18440
3629.85794	0.17958
3627.92921	0.18195
3626.00049	0.19053
3624.07177	0.19550
3622.14304	0.19489
3620.21432	0.19231
3618.28560	0.19230
3616.35687	0.19427
3614.42815	0.19528
3612.49942	0.19611
3610.57070	0.19700
3608.64198	0.19766
3606.71325	0.19998
3604.78453	0.20327
3602.85581	0.20492
3600.92708	0.20542
3598.99836	0.20638
3597.06964	0.20728
3595.14091	0.20802
3593.21219	0.20953
3591.28346	0.21023
3589.35474	0.20805
3587.42602	0.20679
3585.49729	0.21094
3583.56857	0.21665
3581.63985	0.21994
3579.71112	0.22189
3577.78240	0.22379
3575.85368	0.22545
3573.92495	0.22687
3571.99623	0.22712
3570.06750	0.22464
3568.13878	0.22142
3566.21006	0.22264
3564.28133	0.22807
3562.35261	0.23282
3560.42389	0.23561
3558.49516	0.23747
3556.56644	0.23826
3554.63771	0.23829
3552.70899	0.23917
3550.78027	0.24073
3548.85154	0.24093
3546.92282	0.24038
3544.99410	0.24180
3543.06537	0.24507
3541.13665	0.24787
3539.20793	0.24920
3537.27920	0.25010
3535.35048	0.25175
3533.42175	0.25362
3531.49303	0.25455
3529.56431	0.25471
3527.63558	0.25514
3525.70686	0.25615
3523.77814	0.25751
3521.84941	0.25913
3519.92069	0.26068
3517.99197	0.26181
3516.06324	0.26269
3514.13452	0.26349
3512.20579	0.26423
3510.27707	0.26484
3508.34835	0.26539
3506.41962	0.26605
3504.49090	0.26686
3502.56218	0.26826
3500.63345	0.27046
3498.70473	0.27232
3496.77600	0.27310
3494.84728	0.27370
3492.91856	0.27480
3490.98983	0.27594
3489.06111	0.27672
3487.13239	0.27726
3485.20366	0.27776
3483.27494	0.27834
3481.34622	0.27924
3479.41749	0.28040
3477.48877	0.28149
3475.56004	0.28273
3473.63132	0.28422
3471.70260	0.28535
3469.77387	0.28588
3467.84515	0.28619
3465.91643	0.28682
3463.98770	0.28789
3462.05898	0.28889
3460.13026	0.28931
3458.20153	0.28916
3456.27281	0.28911
3454.34408	0.28958
3452.41536	0.29032
3450.48664	0.29098
3448.55791	0.29145
3446.62919	0.29202
3444.70047	0.29271
3442.77174	0.29293
3440.84302	0.29284
3438.91429	0.29329
3436.98557	0.29426
3435.05685	0.29494
3433.12812	0.29495
3431.19940	0.29490
3429.27068	0.29528
3427.34195	0.29534
3425.41323	0.29453
3423.48451	0.29372
3421.55578	0.29386
3419.62706	0.29471
3417.69833	0.29574
3415.76961	0.29660
3413.84089	0.29682
3411.91216	0.29688
3409.98344	0.29748
3408.05472	0.29790
3406.12599	0.29750
3404.19727	0.29692
3402.26855	0.29672
3400.33982	0.29691
3398.41110	0.29745
3396.48237	0.29791
3394.55365	0.29748
3392.62493	0.29639
3390.69620	0.29588
3388.76748	0.29628
3386.83876	0.29664
3384.91003	0.29650
3382.98131	0.29647
3381.05259	0.29672
3379.12386	0.29676
3377.19514	0.29635
3375.26641	0.29561
3373.33769	0.29488
3371.40897	0.29453
3369.48024	0.29450
3367.55152	0.29437
3365.62280	0.29413
3363.69407	0.29408
3361.76535	0.29434
3359.83662	0.29451
3357.90790	0.29412
3355.97918	0.29343
3354.05045	0.29292
3352.12173	0.29256
3350.19301	0.29225
3348.26428	0.29187
3346.33556	0.29123
3344.40684	0.29038
3342.47811	0.28968
3340.54939	0.28951
3338.62066	0.28971
3336.69194	0.28981
3334.76322	0.28931
3332.83449	0.28830
3330.90577	0.28777
3328.97705	0.28774
3327.04832	0.28717
3325.11960	0.28575
3323.19088	0.28420
3321.26215	0.28321
3319.33343	0.28265
3317.40470	0.28191
3315.47598	0.28081
3313.54726	0.27985
3311.61853	0.27931
3309.68981	0.27900
3307.76109	0.27870
3305.83236	0.27796
3303.90364	0.27686
3301.97491	0.27595
3300.04619	0.27527
3298.11747	0.27452
3296.18874	0.27341
3294.26002	0.27174
3292.33130	0.27004
3290.40257	0.26881
3288.47385	0.26778
3286.54513	0.26657
3284.61640	0.26525
3282.68768	0.26390
3280.75895	0.26246
3278.83023	0.26097
3276.90151	0.25951
3274.97278	0.25810
3273.04406	0.25665
3271.11534	0.25518
3269.18661	0.25380
3267.25789	0.25228
3265.32917	0.25049
3263.40044	0.24871
3261.47172	0.24711
3259.54299	0.24571
3257.61427	0.24422
3255.68555	0.24250
3253.75682	0.24111
3251.82810	0.23999
3249.89938	0.23855
3247.97065	0.23697
3246.04193	0.23545
3244.11320	0.23387
3242.18448	0.23212
3240.25576	0.22988
3238.32703	0.22742
3236.39831	0.22568
3234.46959	0.22412
3232.54086	0.22217
3230.61214	0.22074
3228.68342	0.21979
3226.75469	0.21859
3224.82597	0.21714
3222.89724	0.21564
3220.96852	0.21426
3219.03980	0.21275
3217.11107	0.21073
3215.18235	0.20882
3213.25363	0.20767
3211.32490	0.20653
3209.39618	0.20479
3207.46746	0.20301
3205.53873	0.20159
3203.61001	0.20070
3201.68128	0.19996
3199.75256	0.19858
3197.82384	0.19655
3195.89511	0.19445
3193.96639	0.19305
3192.03767	0.19236
3190.10894	0.19134
3188.18022	0.18948
3186.25149	0.18748
3184.32277	0.18636
3182.39405	0.18585
3180.46532	0.18469
3178.53660	0.18281
3176.60788	0.18111
3174.67915	0.17996
3172.75043	0.17922
3170.82171	0.17853
3168.89298	0.17751
3166.96426	0.17646
3165.03553	0.17556
3163.10681	0.17410
3161.17809	0.17214
3159.24936	0.17072
3157.32064	0.16995
3155.39192	0.16901
3153.46319	0.16779
3151.53447	0.16675
3149.60575	0.16600
3147.67702	0.16554
3145.74830	0.16483
3143.81957	0.16328
3141.89085	0.16147
3139.96213	0.16005
3138.03340	0.15886
3136.10468	0.15777
3134.17596	0.15686
3132.24723	0.15623
3130.31851	0.15573
3128.38978	0.15491
3126.46106	0.15386
3124.53234	0.15327
3122.60361	0.15326
3120.67489	0.15310
3118.74617	0.15245
3116.81744	0.15183
3114.88872	0.15157
3112.96000	0.15164
3111.03127	0.15210
3109.10255	0.15281
3107.17382	0.15321
3105.24510	0.15322
3103.31638	0.15352
3101.38765	0.15422
3099.45893	0.15507
3097.53021	0.15632
3095.60148	0.15809
3093.67276	0.15990
3091.74404	0.16126
3089.81531	0.16243
3087.88659	0.16370
3085.95786	0.16468
3084.02914	0.16538
3082.10042	0.16635
3080.17169	0.16787
3078.24297	0.16956
3076.31425	0.17086
3074.38552	0.17174
3072.45680	0.17244
3070.52807	0.17319
3068.59935	0.17429
3066.67063	0.17554
3064.74190	0.17637
3062.81318	0.17647
3060.88446	0.17632
3058.95573	0.17664
3057.02701	0.17735
3055.09829	0.17789
3053.16956	0.17809
3051.24084	0.17806
3049.31211	0.17797
3047.38339	0.17804
3045.45467	0.17820
3043.52594	0.17807
3041.59722	0.17755
3039.66850	0.17697
3037.73977	0.17661
3035.81105	0.17641
3033.88233	0.17597
3031.95360	0.17513
3030.02488	0.17435
3028.09615	0.17378
3026.16743	0.17312
3024.23871	0.17235
3022.30998	0.17172
3020.38126	0.17131
3018.45254	0.17104
3016.52381	0.17063
3014.59509	0.17000
3012.66636	0.16940
3010.73764	0.16925
3008.80892	0.16965
3006.88019	0.17007
3004.95147	0.17034
3003.02275	0.17093
3001.09402	0.17184
2999.16530	0.17256
2997.23658	0.17305
2995.30785	0.17373
2993.37913	0.17483
2991.45040	0.17598
2989.52168	0.17696
2987.59296	0.17813
2985.66423	0.17960
2983.73551	0.18109
2981.80679	0.18253
2979.87806	0.18400
2977.94934	0.18550
2976.02062	0.18714
2974.09189	0.18906
2972.16317	0.19125
2970.23444	0.19349
2968.30572	0.19542
2966.37700	0.19705
2964.44827	0.19852
2962.51955	0.19978
2960.59083	0.20107
2958.66210	0.20235
2956.73338	0.20312
2954.80466	0.20367
2952.87593	0.20440
2950.94721	0.20491
2949.01848	0.20532
2947.08976	0.20633
2945.16104	0.20812
2943.23231	0.21011
2941.30359	0.21188
2939.37487	0.21392
2937.44614	0.21666
2935.51742	0.21947
2933.58869	0.22182
2931.65997	0.22405
2929.73125	0.22624
2927.80252	0.22785
2925.87380	0.22850
2923.94508	0.22825
2922.01635	0.22721
2920.08763	0.22542
2918.15891	0.22307
2916.23018	0.22055
2914.30146	0.21803
2912.37273	0.21564
2910.44401	0.21370
2908.51529	0.21216
2906.58656	0.21060
2904.65784	0.20888
2902.72912	0.20742
2900.80039	0.20667
2898.87167	0.20616
2896.94295	0.20511
2895.01422	0.20379
2893.08550	0.20286
2891.15677	0.20219
2889.22805	0.20153
2887.29933	0.20097
2885.37060	0.20070
2883.44188	0.20050
2881.51316	0.19997
2879.58443	0.19932
2877.65571	0.19907
2875.72698	0.19927
2873.79826	0.19951
2871.86954	0.19948
2869.94081	0.19916
2868.01209	0.19895
2866.08337	0.19939
2864.15464	0.20040
2862.22592	0.20149
2860.29720	0.20254
2858.36847	0.20357
2856.43975	0.20442
2854.51102	0.20455
2852.58230	0.20334
2850.65358	0.20077
2848.72485	0.19742
2846.79613	0.19395
2844.86741	0.19091
2842.93868	0.18838
2841.00996	0.18615
2839.08124	0.18434
2837.15251	0.18290
2835.22379	0.18159
2833.29506	0.18045
2831.36634	0.17955
2829.43762	0.17884
2827.50889	0.17832
2825.58017	0.17788
2823.65145	0.17724
2821.72272	0.17644
2819.79400	0.17584
2817.86527	0.17541
2815.93655	0.17481
2814.00783	0.17403
2812.07910	0.17326
2810.15038	0.17260
2808.22166	0.17199
2806.29293	0.17146
2804.36421	0.17103
2802.43549	0.17054
2800.50676	0.16989
2798.57804	0.16923
2796.64931	0.16878
2794.72059	0.16848
2792.79187	0.16807
2790.86314	0.16744
2788.93442	0.16669
2787.00570	0.16586
2785.07697	0.16511
2783.14825	0.16478
2781.21953	0.16485
2779.29080	0.16487
2777.36208	0.16455
2775.43335	0.16417
2773.50463	0.16400
2771.57591	0.16388
2769.64718	0.16371
2767.71846	0.16358
2765.78974	0.16341
2763.86101	0.16319
2761.93229	0.16306
2760.00356	0.16304
2758.07484	0.16304
2756.14612	0.16302
2754.21739	0.16304
2752.28867	0.16295
2750.35995	0.16265
2748.43122	0.16233
2746.50250	0.16204
2744.57378	0.16176
2742.64505	0.16164
2740.71633	0.16167
2738.78760	0.16155
2736.85888	0.16116
2734.93016	0.16059
2733.00143	0.16010
2731.07271	0.15988
2729.14399	0.15977
2727.21526	0.15957
2725.28654	0.15932
2723.35782	0.15904
2721.42909	0.15863
2719.50037	0.15809
2717.57164	0.15755
2715.64292	0.15714
2713.71420	0.15682
2711.78547	0.15665
2709.85675	0.15666
2707.92803	0.15658
2705.99930	0.15625
2704.07058	0.15585
2702.14185	0.15549
2700.21313	0.15514
2698.28441	0.15478
2696.35568	0.15438
2694.42696	0.15405
2692.49824	0.15396
2690.56951	0.15395
2688.64079	0.15368
2686.71207	0.15313
2684.78334	0.15255
2682.85462	0.15214
2680.92589	0.15207
2678.99717	0.15217
2677.06845	0.15203
2675.13972	0.15162
2673.21100	0.15120
2671.28228	0.15078
2669.35355	0.15029
2667.42483	0.14985
2665.49611	0.14955
2663.56738	0.14925
2661.63866	0.14894
2659.70993	0.14862
2657.78121	0.14826
2655.85249	0.14804
2653.92376	0.14798
2651.99504	0.14784
2650.06632	0.14752
2648.13759	0.14713
2646.20887	0.14675
2644.28014	0.14648
2642.35142	0.14642
2640.42270	0.14636
2638.49397	0.14611
2636.56525	0.14572
2634.63653	0.14541
2632.70780	0.14531
2630.77908	0.14526
2628.85036	0.14504
2626.92163	0.14465
2624.99291	0.14429
2623.06418	0.14398
2621.13546	0.14360
2619.20674	0.14323
2617.27801	0.14283
2615.34929	0.14228
2613.42057	0.14183
2611.49184	0.14167
2609.56312	0.14162
2607.63440	0.14145
2605.70567	0.14118
2603.77695	0.14100
2601.84822	0.14088
2599.91950	0.14058
2597.99078	0.14008
2596.06205	0.13959
2594.13333	0.13933
2592.20461	0.13924
2590.27588	0.13903
2588.34716	0.13868
2586.41843	0.13836
2584.48971	0.13815
2582.56099	0.13802
2580.63226	0.13785
2578.70354	0.13755
2576.77482	0.13718
2574.84609	0.13689
2572.91737	0.13673
2570.98865	0.13650
2569.05992	0.13620
2567.13120	0.13602
2565.20247	0.13598
2563.27375	0.13594
2561.34503	0.13581
2559.41630	0.13553
2557.48758	0.13518
2555.55886	0.13494
2553.63013	0.13475
2551.70141	0.13461
2549.77269	0.13457
2547.84396	0.13451
2545.91524	0.13432
2543.98651	0.13418
2542.05779	0.13413
2540.12907	0.13406
2538.20034	0.13390
2536.27162	0.13368
2534.34290	0.13347
2532.41417	0.13334
2530.48545	0.13324
2528.55673	0.13300
2526.62800	0.13279
2524.69928	0.13267
2522.77055	0.13236
2520.84183	0.13201
2518.91311	0.13186
2516.98438	0.13177
2515.05566	0.13164
2513.12694	0.13159
2511.19821	0.13148
2509.26949	0.13117
2507.34076	0.13086
2505.41204	0.13068
2503.48332	0.13054
2501.55459	0.13041
2499.62587	0.13035
2497.69715	0.13036
2495.76842	0.13033
2493.83970	0.13018
2491.91098	0.12997
2489.98225	0.12989
2488.05353	0.12988
2486.12480	0.12981
2484.19608	0.12966
2482.26736	0.12948
2480.33863	0.12938
2478.40991	0.12931
2476.48119	0.12915
2474.55246	0.12883
2472.62374	0.12838
2470.69502	0.12819
2468.76629	0.12842
2466.83757	0.12862
2464.90884	0.12844
2462.98012	0.12801
2461.05140	0.12761
2459.12267	0.12733
2457.19395	0.12716
2455.26523	0.12708
2453.33650	0.12700
2451.40778	0.12678
2449.47905	0.12656
2447.55033	0.12657
2445.62161	0.12659
2443.69288	0.12635
2441.76416	0.12603
2439.83544	0.12578
2437.90671	0.12560
2435.97799	0.12542
2434.04927	0.12507
2432.12054	0.12455
2430.19182	0.12397
2428.26309	0.12343
2426.33437	0.12311
2424.40565	0.12315
2422.47692	0.12343
2420.54820	0.12369
2418.61948	0.12375
2416.69075	0.12357
2414.76203	0.12330
2412.83331	0.12321
2410.90458	0.12332
2408.97586	0.12343
2407.04713	0.12335
2405.11841	0.12307
2403.18969	0.12271
2401.26096	0.12241
2399.33224	0.12220
2397.40352	0.12212
2395.47479	0.12215
2393.54607	0.12210
2391.61734	0.12183
2389.68862	0.12129
2387.75990	0.12021
2385.83117	0.11798
2383.90245	0.11382
2381.97373	0.10701
2380.04500	0.09731
2378.11628	0.08540
2376.18756	0.07245
2374.25883	0.05946
2372.33011	0.04706
2370.40138	0.03560
2368.47266	0.02510
2366.54394	0.01561
2364.61521	0.00787
2362.68649	0.00254
2360.75777	0.00000
2358.82904	0.00096
2356.90032	0.00597
2354.97160	0.01546
2353.04287	0.03013
2351.11415	0.04673
2349.18542	0.05580
2347.25670	0.05140
2345.32798	0.03910
2343.39925	0.03055
2341.47053	0.02874
2339.54181	0.02978
2337.61308	0.03168
2335.68436	0.03365
2333.75563	0.03488
2331.82691	0.03566
2329.89819	0.03772
2327.96946	0.04156
2326.04074	0.04543
2324.11202	0.04839
2322.18329	0.05186
2320.25457	0.05722
2318.32585	0.06395
2316.39712	0.07028
2314.46840	0.07494
2312.53967	0.07882
2310.61095	0.08315
2308.68223	0.08775
2306.75350	0.09210
2304.82478	0.09597
2302.89606	0.09918
2300.96733	0.10174
2299.03861	0.10385
2297.10989	0.10575
2295.18116	0.10739
2293.25244	0.10865
2291.32371	0.10976
2289.39499	0.11090
2287.46627	0.11193
2285.53754	0.11276
2283.60882	0.11335
2281.68010	0.11349
2279.75137	0.11318
2277.82265	0.11282
2275.89392	0.11264
2273.96520	0.11243
2272.03648	0.11216
2270.10775	0.11202
2268.17903	0.11216
2266.25031	0.11235
2264.32158	0.11229
2262.39286	0.11211
2260.46414	0.11211
2258.53541	0.11229
2256.60669	0.11257
2254.67796	0.11287
2252.74924	0.11305
2250.82052	0.11312
2248.89179	0.11319
2246.96307	0.11329
2245.03435	0.11338
2243.10562	0.11339
2241.17690	0.11332
2239.24818	0.11329
2237.31945	0.11335
2235.39073	0.11335
2233.46200	0.11324
2231.53328	0.11306
2229.60456	0.11284
2227.67583	0.11274
2225.74711	0.11287
2223.81839	0.11310
2221.88966	0.11315
2219.96094	0.11295
2218.03221	0.11268
2216.10349	0.11253
2214.17477	0.11247
2212.24604	0.11230
2210.31732	0.11202
2208.38860	0.11184
2206.45987	0.11185
2204.53115	0.11190
2202.60243	0.11186
2200.67370	0.11180
2198.74498	0.11180
2196.81625	0.11181
2194.88753	0.11183
2192.95881	0.11183
2191.03008	0.11174
2189.10136	0.11163
2187.17264	0.11158
2185.24391	0.11153
2183.31519	0.11138
2181.38647	0.11113
2179.45774	0.11091
2177.52902	0.11094
2175.60029	0.11113
2173.67157	0.11118
2171.74285	0.11106
2169.81412	0.11097
2167.88540	0.11097
2165.95668	0.11094
2164.02795	0.11097
2162.09923	0.11105
2160.17050	0.11103
2158.24178	0.11097
2156.31306	0.11108
2154.38433	0.11122
2152.45561	0.11128
2150.52689	0.11132
2148.59816	0.11146
2146.66944	0.11168
2144.74072	0.11182
2142.81199	0.11170
2140.88327	0.11149
2138.95454	0.11139
2137.02582	0.11134
2135.09710	0.11135
2133.16837	0.11138
2131.23965	0.11138
2129.31093	0.11143
2127.38220	0.11149
2125.45348	0.11144
2123.52476	0.11141
2121.59603	0.11140
2119.66731	0.11140
2117.73858	0.11144
2115.80986	0.11142
2113.88114	0.11139
2111.95241	0.11145
2110.02369	0.11156
2108.09497	0.11172
2106.16624	0.11188
2104.23752	0.11193
2102.30880	0.11188
2100.38007	0.11178
2098.45135	0.11167
2096.52262	0.11163
2094.59390	0.11169
2092.66518	0.11174
2090.73645	0.11176
2088.80773	0.11175
2086.87901	0.11169
2084.95028	0.11159
2083.02156	0.11150
2081.09283	0.11139
2079.16411	0.11113
2077.23539	0.11078
2075.30666	0.11051
2073.37794	0.11044
2071.44922	0.11066
2069.52049	0.11086
2067.59177	0.11076
2065.66305	0.11075
2063.73432	0.11127
2061.80560	0.11200
2059.87687	0.11254
2057.94815	0.11299
2056.01943	0.11351
2054.09070	0.11410
2052.16198	0.11469
2050.23326	0.11536
2048.30453	0.11615
2046.37581	0.11685
2044.44709	0.11736
2042.51836	0.11788
2040.58964	0.11863
2038.66091	0.11950
2036.73219	0.12035
2034.80347	0.12123
2032.87474	0.12209
2030.94602	0.12281
2029.01730	0.12334
2027.08857	0.12372
2025.15985	0.12415
2023.23112	0.12470
2021.30240	0.12517
2019.37368	0.12541
2017.44495	0.12575
2015.51623	0.12654
2013.58751	0.12752
2011.65878	0.12827
2009.73006	0.12878
2007.80134	0.12921
2005.87261	0.12953
2003.94389	0.12978
2002.01516	0.13004
2000.08644	0.13039
1998.15772	0.13082
1996.22899	0.13108
1994.30027	0.13069
1992.37155	0.13018
1990.44282	0.13063
1988.51410	0.13160
1986.58538	0.13233
1984.65665	0.13289
1982.72793	0.13328
1980.79920	0.13333
1978.87048	0.13321
1976.94176	0.13328
1975.01303	0.13349
1973.08431	0.13361
1971.15559	0.13345
1969.22686	0.13293
1967.29814	0.13258
1965.36941	0.13292
1963.44069	0.13352
1961.51197	0.13389
1959.58324	0.13401
1957.65452	0.13388
1955.72580	0.13369
1953.79707	0.13376
1951.86835	0.13403
1949.93963	0.13422
1948.01090	0.13409
1946.08218	0.13327
1944.15345	0.13182
1942.22473	0.13134
1940.29601	0.13263
1938.36728	0.13402
1936.43856	0.13453
1934.50984	0.13455
1932.58111	0.13456
1930.65239	0.13488
1928.72367	0.13530
1926.79494	0.13524
1924.86622	0.13442
1922.93749	0.13381
1921.00877	0.13385
1919.08005	0.13379
1917.15132	0.13467
1915.22260	0.13693
1913.29388	0.13848
1911.36515	0.13879
1909.43643	0.13916
1907.50770	0.14031
1905.57898	0.14186
1903.65026	0.14321
1901.72153	0.14428
1899.79281	0.14514
1897.86409	0.14561
1895.93536	0.14593
1894.00664	0.14654
1892.07792	0.14671
1890.14919	0.14652
1888.22047	0.14776
1886.29174	0.14999
1884.36302	0.15156
1882.43430	0.15249
1880.50557	0.15304
1878.57685	0.15335
1876.64813	0.15359
1874.71940	0.15364
1872.79068	0.15248
1870.86196	0.14934
1868.93323	0.14685
1867.00451	0.14821
1865.07578	0.15123
1863.14706	0.15265
1861.21834	0.15256
1859.28961	0.15210
1857.36089	0.15180
1855.43217	0.15145
1853.50344	0.15080
1851.57472	0.14981
1849.64599	0.14812
1847.71727	0.14496
1845.78855	0.14055
1843.85982	0.13878
1841.93110	0.14169
1840.00238	0.14448
1838.07365	0.14489
1836.14493	0.14478
1834.21621	0.14419
1832.28748	0.14133
1830.35876	0.13774
1828.43003	0.13698
1826.50131	0.13797
1824.57259	0.13934
1822.64386	0.14174
1820.71514	0.14357
1818.78642	0.14390
1816.85769	0.14390
1814.92897	0.14392
1813.00025	0.14319
1811.07152	0.14234
1809.14280	0.14295
1807.21407	0.14444
1805.28535	0.14483
1803.35663	0.14331
1801.42790	0.14139
1799.49918	0.14155
1797.57046	0.14310
1795.64173	0.14250
1793.71301	0.13920
1791.78428	0.13850
1789.85556	0.14309
1787.92684	0.14741
1785.99811	0.14859
1784.06939	0.14874
1782.14067	0.14896
1780.21194	0.14949
1778.28322	0.15058
1776.35450	0.15001
1774.42577	0.14590
1772.49705	0.14180
1770.56832	0.14323
1768.63960	0.14828
1766.71088	0.15298
1764.78215	0.15497
1762.85343	0.15412
1760.92471	0.15438
1758.99598	0.15639
1757.06726	0.15806
1755.13854	0.15968
1753.20981	0.15919
1751.28109	0.15619
1749.35236	0.15589
1747.42364	0.16000
1745.49492	0.16451
1743.56619	0.16684
1741.63747	0.16732
1739.70875	0.16853
1737.78002	0.16994
1735.85130	0.16725
1733.92257	0.16474
1731.99385	0.17030
1730.06513	0.17809
1728.13640	0.18354
1726.20768	0.18648
1724.27896	0.18718
1722.35023	0.18620
1720.42151	0.18159
1718.49279	0.17412
1716.56406	0.17198
1714.63534	0.17806
1712.70661	0.18546
1710.77789	0.18976
1708.84917	0.18967
1706.92044	0.18678
1704.99172	0.18487
1703.06300	0.18219
1701.13427	0.17660
1699.20555	0.17595
1697.27683	0.18211
1695.34810	0.19096
1693.41938	0.20095
1691.49065	0.20665
1689.56193	0.20771
1687.63321	0.20539
1685.70448	0.19903
1683.77576	0.19746
1681.84704	0.20707
1679.91831	0.21640
1677.98959	0.21896
1676.06087	0.21743
1674.13214	0.21786
1672.20342	0.21929
1670.27469	0.21972
1668.34597	0.22464
1666.41725	0.23159
1664.48852	0.23332
1662.55980	0.23321
1660.63108	0.23638
1658.70235	0.23849
1656.77363	0.23334
1654.84490	0.22011
1652.91618	0.21185
1650.98746	0.21834
1649.05873	0.22160
1647.13001	0.22028
1645.20129	0.22557
1643.27256	0.23373
1641.34384	0.23654
1639.41512	0.23302
1637.48639	0.22440
1635.55767	0.21833
1633.62894	0.22220
1631.70022	0.22682
1629.77150	0.22545
1627.84277	0.22115
1625.91405	0.21649
1623.98533	0.21170
1622.05660	0.20949
1620.12788	0.20765
1618.19916	0.20137
1616.27043	0.19562
1614.34171	0.19608
1612.41298	0.19671
1610.48426	0.19429
1608.55554	0.19127
1606.62681	0.18910
1604.69809	0.18664
1602.76937	0.18339
1600.84064	0.18043
1598.91192	0.17830
1596.98319	0.17670
1595.05447	0.17598
1593.12575	0.17676
1591.19702	0.17844
1589.26830	0.18007
1587.33958	0.18123
1585.41085	0.18177
1583.48213	0.18195
1581.55341	0.18169
1579.62468	0.17897
1577.69596	0.17298
1575.76723	0.17014
1573.83851	0.17336
1571.90979	0.17372
1569.98106	0.17074
1568.05234	0.17205
1566.12362	0.17673
1564.19489	0.17953
1562.26617	0.17588
1560.33745	0.16354
1558.40872	0.15853
1556.48000	0.17178
1554.55127	0.18495
1552.62255	0.19210
1550.69383	0.19561
1548.76510	0.19741
1546.83638	0.19627
1544.90766	0.19023
1542.97893	0.18094
1541.05021	0.17381
1539.12148	0.17897
1537.19276	0.19020
1535.26404	0.19365
1533.33531	0.19288
1531.40659	0.19513
1529.47787	0.19591
1527.54914	0.19185
1525.62042	0.18644
1523.69170	0.18044
1521.76297	0.17505
1519.83425	0.17472
1517.90552	0.17678
1515.97680	0.17894
1514.04808	0.18093
1512.11935	0.17909
1510.19063	0.17066
1508.26191	0.15751
1506.33318	0.15285
1504.40446	0.16323
1502.47574	0.17108
1500.54701	0.16967
1498.61829	0.16408
1496.68956	0.16197
1494.76084	0.16449
1492.83212	0.16415
1490.90339	0.15878
1488.97467	0.15581
1487.04595	0.15966
1485.11722	0.16513
1483.18850	0.16796
1481.25977	0.16878
1479.33105	0.16845
1477.40233	0.16581
1475.47360	0.16104
1473.54488	0.15843
1471.61616	0.16399
1469.68743	0.17382
1467.75871	0.17828
1465.82999	0.17714
1463.90126	0.17717
1461.97254	0.17791
1460.04381	0.17250
1458.11509	0.16300
1456.18637	0.16283
1454.25764	0.17156
1452.32892	0.17702
1450.40020	0.17696
1448.47147	0.17473
1446.54275	0.17448
1444.61403	0.17596
1442.68530	0.17618
1440.75658	0.17373
1438.82785	0.16773
1436.89913	0.16168
1434.97041	0.16210
1433.04168	0.16450
1431.11296	0.16321
1429.18424	0.16078
1427.25551	0.15860
1425.32679	0.15444
1423.39806	0.14856
1421.46934	0.14083
1419.54062	0.13149
1417.61189	0.12650
1415.68317	0.12588
1413.75445	0.12310
1411.82572	0.11705
1409.89700	0.11004
1407.96828	0.10290
1406.03955	0.09575
1404.11083	0.09074
1402.18210	0.08790
1400.25338	0.08466
1398.32466	0.08279
1396.39593	0.08490
1394.46721	0.09136
1392.53849	0.10034
1390.60976	0.10627
1388.68104	0.10551
1386.75232	0.10075
1384.82359	0.10074
1382.89487	0.11157
1380.96614	0.12861
1379.03742	0.14290
1377.10870	0.15105
1375.17997	0.15603
1373.25125	0.16234
1371.32253	0.16964
1369.39380	0.17504
1367.46508	0.17857
1365.53635	0.18024
1363.60763	0.18036
1361.67891	0.18205
1359.75018	0.18598
1357.82146	0.18934
1355.89274	0.19132
1353.96401	0.19309
1352.03529	0.19498
1350.10657	0.19658
1348.17784	0.19790
1346.24912	0.19892
1344.32039	0.19891
1342.39167	0.19703
1340.46295	0.19461
1338.53422	0.19488
1336.60550	0.19818
1334.67678	0.20171
1332.74805	0.20373
1330.81933	0.20443
1328.89061	0.20477
1326.96188	0.20562
1325.03316	0.20716
1323.10443	0.20877
1321.17571	0.20970
1319.24699	0.21030
1317.31826	0.21178
1315.38954	0.21437
1313.46082	0.21739
1311.53209	0.22068
1309.60337	0.22416
1307.67464	0.22751
1305.74592	0.23057
1303.81720	0.23331
1301.88847	0.23582
1299.95975	0.23845
1298.03103	0.24146
1296.10230	0.24477
1294.17358	0.24806
1292.24486	0.25100
1290.31613	0.25366
1288.38741	0.25683
1286.45868	0.26096
1284.52996	0.26579
1282.60124	0.27115
1280.67251	0.27693
1278.74379	0.28276
1276.81507	0.28869
1274.88634	0.29508
1272.95762	0.30199
1271.02890	0.30966
1269.10017	0.31858
1267.17145	0.32875
1265.24272	0.33996
1263.31400	0.35219
1261.38528	0.36535
1259.45655	0.37952
1257.52783	0.39485
1255.59911	0.41159
1253.67038	0.42964
1251.74166	0.44804
1249.81294	0.46582
1247.88421	0.48279
1245.95549	0.49888
1244.02676	0.51353
1242.09804	0.52661
1240.16932	0.53846
1238.24059	0.54897
1236.31187	0.55823
1234.38315	0.56679
1232.45442	0.57453
1230.52570	0.58140
1228.59697	0.58781
1226.66825	0.59377
1224.73953	0.59917
1222.81080	0.60391
1220.88208	0.60820
1218.95336	0.61217
1217.02463	0.61570
1215.09591	0.61899
1213.16719	0.62169
1211.23846	0.62369
1209.30974	0.62625
1207.38101	0.62996
1205.45229	0.63383
1203.52357	0.63646
1201.59484	0.63752
1199.66612	0.63818
1197.73740	0.63964
1195.80867	0.64215
1193.87995	0.64503
1191.95123	0.64788
1190.02250	0.65100
1188.09378	0.65406
1186.16505	0.65713
1184.23633	0.66097
1182.30761	0.66533
1180.37888	0.66913
1178.45016	0.67193
1176.52144	0.67439
1174.59271	0.67660
1172.66399	0.67837
1170.73526	0.68104
1168.80654	0.68483
1166.87782	0.68798
1164.94909	0.68981
1163.02037	0.69075
1161.09165	0.69172
1159.16292	0.69369
1157.23420	0.69622
1155.30548	0.69829
1153.37675	0.69983
1151.44803	0.70153
1149.51930	0.70369
1147.59058	0.70608
1145.66186	0.70893
1143.73313	0.71178
1141.80441	0.71373
1139.87569	0.71614
1137.94696	0.71992
1136.01824	0.72244
1134.08952	0.72222
1132.16079	0.72252
1130.23207	0.72599
1128.30334	0.73090
1126.37462	0.73487
1124.44590	0.73762
1122.51717	0.74058
1120.58845	0.74507
1118.65973	0.75049
1116.73100	0.75646
1114.80228	0.76389
1112.87355	0.77219
1110.94483	0.78004
1109.01611	0.78831
1107.08738	0.79729
1105.15866	0.80529
1103.22994	0.81270
1101.30121	0.82006
1099.37249	0.82595
1097.44377	0.83121
1095.51504	0.83784
1093.58632	0.84457
1091.65759	0.84807
1089.72887	0.84788
1087.80015	0.84710
1085.87142	0.84754
1083.94270	0.84842
1082.01398	0.84880
1080.08525	0.84791
1078.15653	0.84507
1076.22781	0.84083
1074.29908	0.83733
1072.37036	0.83616
1070.44163	0.83559
1068.51291	0.83297
1066.58419	0.82836
1064.65546	0.82303
1062.72674	0.81690
1060.79802	0.80883
1058.86929	0.79906
1056.94057	0.78950
1055.01184	0.78067
1053.08312	0.77176
1051.15440	0.76271
1049.22567	0.75294
1047.29695	0.74168
1045.36823	0.73000
1043.43950	0.71891
1041.51078	0.70804
1039.58206	0.69727
1037.65333	0.68662
1035.72461	0.67532
1033.79588	0.66329
1031.86716	0.65215
1029.93844	0.64256
1028.00971	0.63372
1026.08099	0.62528
1024.15227	0.61739
1022.22354	0.61014
1020.29482	0.60302
1018.36610	0.59550
1016.43737	0.58836
1014.50865	0.58247
1012.57992	0.57732
1010.65120	0.57226
1008.72248	0.56732
1006.79375	0.56259
1004.86503	0.55822
1002.93631	0.55455
1001.00758	0.55098
999.07886	0.54673
997.15013	0.54235
995.22141	0.53808
993.29269	0.53339
991.36396	0.52889
989.43524	0.52526
987.50652	0.52190
985.57779	0.51849
983.64907	0.51576
981.72035	0.51432
979.79162	0.51379
977.86290	0.51361
975.93417	0.51378
974.00545	0.51392
972.07673	0.51390
970.14800	0.51441
968.21928	0.51559
966.29056	0.51666
964.36183	0.51719
962.43311	0.51769
960.50439	0.51820
958.57566	0.51813
956.64694	0.51804
954.71821	0.51864
952.78949	0.51886
950.86077	0.51763
948.93204	0.51566
947.00332	0.51418
945.07460	0.51260
943.14587	0.50985
941.21715	0.50694
939.28842	0.50459
937.35970	0.50212
935.43098	0.49960
933.50225	0.49673
931.57353	0.49300
929.64481	0.48942
927.71608	0.48673
925.78736	0.48402
923.85864	0.48071
921.92991	0.47746
920.00119	0.47431
918.07246	0.47063
916.14374	0.46656
914.21502	0.46218
912.28629	0.45723
910.35757	0.45214
908.42885	0.44739
906.50012	0.44314
904.57140	0.43934
902.64268	0.43538
900.71395	0.43067
898.78523	0.42553
896.85650	0.42030
894.92778	0.41470
892.99906	0.40939
891.07033	0.40553
889.14161	0.40214
887.21289	0.39781
885.28416	0.39316
883.35544	0.38856
881.42671	0.38382
879.49799	0.37939
877.56927	0.37542
875.64054	0.37156
873.71182	0.36786
871.78310	0.36446
869.85437	0.36103
867.92565	0.35764
865.99693	0.35512
864.06820	0.35336
862.13948	0.35140
860.21075	0.34892
858.28203	0.34637
856.35331	0.34434
854.42458	0.34335
852.49586	0.34315
850.56714	0.34312
848.63841	0.34341
846.70969	0.34409
844.78097	0.34522
842.85224	0.34720
840.92352	0.35002
838.99479	0.35379
837.06607	0.35874
835.13735	0.36441
833.20862	0.37017
831.27990	0.37602
829.35118	0.38223
827.42245	0.38870
825.49373	0.39485
823.56501	0.40000
821.63628	0.40471
819.70756	0.40995
817.77883	0.41570
815.85011	0.42140
813.92139	0.42572
811.99266	0.42819
810.06394	0.43099
808.13522	0.43568
806.20649	0.44069
804.27777	0.44386
802.34904	0.44522
800.42032	0.44605
798.49160	0.44702
796.56287	0.44770
794.63415	0.44699
792.70543	0.44463
790.77670	0.44099
788.84798	0.43599
786.91926	0.42990
784.99053	0.42387
783.06181	0.41855
781.13308	0.41272
779.20436	0.40577
777.27564	0.39920
775.34691	0.39313
773.41819	0.38642
771.48947	0.37964
769.56074	0.37413
767.63202	0.37058
765.70330	0.36846
763.77457	0.36654
761.84585	0.36472
759.91712	0.36340
757.98840	0.36212
756.05968	0.36053
754.13095	0.35840
752.20223	0.35648
750.27351	0.35624
748.34478	0.35681
746.41606	0.35644
744.48733	0.35522
742.55861	0.35333
740.62989	0.35132
738.70116	0.35061
736.77244	0.35123
734.84372	0.35179
732.91499	0.35185
730.98627	0.35231
729.05755	0.35300
727.12882	0.35276
725.20010	0.35151
723.27137	0.34989
721.34265	0.34884
719.41393	0.34913
717.48520	0.34974
715.55648	0.34970
713.62776	0.34986
711.69903	0.35023
709.77031	0.35006
707.84159	0.34981
705.91286	0.34940
703.98414	0.34865
702.05541	0.34861
700.12669	0.34990
698.19797	0.35119
696.26924	0.35100
694.34052	0.34958
692.41180	0.34768
690.48307	0.34584
688.55435	0.34442
686.62562	0.34348
684.69690	0.34284
682.76818	0.34304
680.83945	0.34418
678.91073	0.34501
676.98201	0.34581
675.05328	0.34724
673.12456	0.34669
671.19584	0.33708
669.26711	0.31979
667.33839	0.31981
665.40966	0.33964
663.48094	0.35289
661.55222	0.35635
659.62349	0.35584
657.69477	0.35505
655.76605	0.35649
653.83732	0.35950
651.90860	0.36161
649.97988	0.36266
648.05115	0.36430
646.12243	0.36715
644.19370	0.37115
642.26498	0.37540
640.33626	0.37859
638.40753	0.38007
636.47881	0.38044
634.55009	0.38089
632.62136	0.38077
630.69264	0.38001
628.76391	0.37994
626.83519	0.38043
624.90647	0.38088
622.97774	0.38084
621.04902	0.38015
619.12030	0.37947
617.19157	0.38105
615.26285	0.38759
613.33413	0.39672
611.40540	0.40225
609.47668	0.40322
607.54795	0.40382
605.61923	0.40574
603.69051	0.40793
601.76178	0.41085
599.83306	0.41476
597.90434	0.41718
595.97561	0.41707
594.04689	0.41698
592.11817	0.41856
590.18944	0.42144
588.26072	0.42463
586.33199	0.42741
584.40327	0.42994
582.47455	0.43285
580.54582	0.43662
578.61710	0.43867
576.68838	0.43642
574.75965	0.43350
572.83093	0.43317
570.90220	0.43397
568.97348	0.43538
567.04476	0.43899
565.11603	0.44468
563.18731	0.44933
561.25859	0.45151
559.32986	0.45274
557.40114	0.45388
555.47242	0.45503
553.54369	0.45602
551.61497	0.45665
549.68624	0.45810
547.75752	0.46088
545.82880	0.46454
543.90007	0.46998
541.97135	0.47549
540.04263	0.47909
538.11390	0.48249
536.18518	0.48437
534.25646	0.48222
532.32773	0.47855
530.39901	0.47727
528.47028	0.47933
526.54156	0.48381
524.61284	0.48950
522.68411	0.49176
520.75539	0.48898
518.82667	0.48879
516.89794	0.49617
514.96922	0.50588
513.04049	0.51156
511.11177	0.51330
509.18305	0.51568
507.25432	0.52199
505.32560	0.53105
503.39688	0.54270
501.46815	0.55997
499.53943	0.57775
497.61071	0.58688
495.68198	0.59276
493.75326	0.60427
491.82453	0.61734
489.89581	0.62746
487.96709	0.63687
486.03836	0.64668
484.10964	0.65961
482.18092	0.68076
480.25219	0.70593
478.32347	0.72275
476.39475	0.73026
474.46602	0.73348
472.53730	0.73178
470.60857	0.72965
468.67985	0.72860
466.75113	0.72752
464.82240	0.73383
462.89368	0.75047
460.96496	0.76553
459.03623	0.76040
457.10751	0.73629
455.17878	0.71794
453.25006	0.71733
451.32134	0.72552
449.39261	0.73049
447.46389	0.72939
445.53517	0.72223
443.60644	0.70705
441.67772	0.68682
439.74900	0.66454
437.82027	0.64114
435.89155	0.63005
433.96282	0.63752
432.03410	0.63937
430.10538	0.62282
428.17665	0.60798
426.24793	0.61163
424.31921	0.62893
422.39048	0.63880
420.46176	0.63467
418.53304	0.62884
416.60431	0.61496
414.67559	0.59131
412.74686	0.57023
410.81814	0.55143
408.88942	0.53373
406.96069	0.52082
405.03197	0.50706
403.10325	0.49738
401.17452	0.49995
399.24580	0.50493
397.31708	0.52010
395.38835	0.56650
393.45963	0.60239
391.53090	0.57369
389.60218	0.51232
387.67346	0.47538
385.74473	0.47950
383.81601	0.49118
381.88729	0.46003
379.95856	0.41876
378.02984	0.40247
376.10111	0.40800
374.17239	0.44569
372.24367	0.49949
370.31494	0.48964
368.38622	0.36220
