3747.24323,0.00000
3745.31464,0.00078
3743.38605,0.00101
3741.45747,0.00117
3739.52888,0.00177
3737.60030,0.00240
3735.67171,0.00278
3733.74312,0.00298
3731.81454,0.00352
3729.88595,0.00423
3727.95736,0.00508
3726.02878,0.00582
3724.10019,0.00660
3722.17161,0.00790
3720.24302,0.00951
3718.31443,0.01146
3716.38585,0.01367
3714.45726,0.01641
3712.52867,0.01936
3710.60009,0.02219
3708.67150,0.02527
3706.74291,0.02839
3704.81433,0.03180
3702.88574,0.03524
3700.95716,0.03796
3699.02857,0.03990
3697.09998,0.04108
3695.17140,0.04190
3693.24281,0.04230
3691.31422,0.04292
3689.38564,0.04389
3687.45705,0.04495
3685.52846,0.04672
3683.59988,0.04922
3681.67129,0.05226
3679.74271,0.05556
3677.81412,0.05918
3675.88553,0.06309
3673.95695,0.06725
3672.02836,0.07160
3670.09977,0.07611
3668.17119,0.08065
3666.24260,0.08486
3664.31402,0.08902
3662.38543,0.09329
3660.45684,0.09729
3658.52826,0.10119
3656.59967,0.10522
3654.67108,0.10884
3652.74250,0.11177
3650.81391,0.11471
3648.88532,0.11798
3646.95674,0.12091
3645.02815,0.12366
3643.09957,0.12647
3641.17098,0.12932
3639.24239,0.13220
3637.31381,0.13488
3635.38522,0.13755
3633.45663,0.14026
3631.52805,0.14299
3629.59946,0.14549
3627.67088,0.14700
3625.74229,0.14821
3623.81370,0.14937
3621.88512,0.15016
3619.95653,0.15016
3618.02794,0.14880
3616.09936,0.14726
3614.17077,0.14594
3612.24218,0.14473
3610.31360,0.14366
3608.38501,0.14259
3606.45643,0.14167
3604.52784,0.14083
3602.59925,0.14021
3600.67067,0.13960
3598.74208,0.13882
3596.81349,0.13836
3594.88491,0.13806
3592.95632,0.13764
3591.02774,0.13743
3589.09915,0.13731
3587.17056,0.13710
3585.24198,0.13721
3583.31339,0.13764
3581.38480,0.13796
3579.45622,0.13825
3577.52763,0.13874
3575.59904,0.13947
3573.67046,0.14019
3571.74187,0.14069
3569.81329,0.14133
3567.88470,0.14225
3565.95611,0.14306
3564.02753,0.14379
3562.09894,0.14477
3560.17035,0.14576
3558.24177,0.14647
3556.31318,0.14713
3554.38459,0.14787
3552.45601,0.14886
3550.52742,0.15000
3548.59884,0.15099
3546.67025,0.15176
3544.74166,0.15243
3542.81308,0.15327
3540.88449,0.15434
3538.95590,0.15554
3537.02732,0.15643
3535.09873,0.15712
3533.17015,0.15822
3531.24156,0.15930
3529.31297,0.16005
3527.38439,0.16091
3525.45580,0.16180
3523.52721,0.16262
3521.59863,0.16333
3519.67004,0.16393
3517.74145,0.16486
3515.81287,0.16604
3513.88428,0.16704
3511.95570,0.16780
3510.02711,0.16857
3508.09852,0.16951
3506.16994,0.17050
3504.24135,0.17140
3502.31276,0.17220
3500.38418,0.17303
3498.45559,0.17387
3496.52701,0.17471
3494.59842,0.17573
3492.66983,0.17660
3490.74125,0.17722
3488.81266,0.17798
3486.88407,0.17898
3484.95549,0.17976
3483.02690,0.18034
3481.09831,0.18115
3479.16973,0.18188
3477.24114,0.18250
3475.31256,0.18313
3473.38397,0.18379
3471.45538,0.18456
3469.52680,0.18524
3467.59821,0.18595
3465.66962,0.18671
3463.74104,0.18733
3461.81245,0.18787
3459.88386,0.18842
3457.95528,0.18913
3456.02669,0.18991
3454.09811,0.19055
3452.16952,0.19107
3450.24093,0.19174
3448.31235,0.19236
3446.38376,0.19276
3444.45517,0.19329
3442.52659,0.19382
3440.59800,0.19430
3438.66942,0.19479
3436.74083,0.19526
3434.81224,0.19579
3432.88366,0.19631
3430.95507,0.19684
3429.02648,0.19732
3427.09790,0.19760
3425.16931,0.19803
3423.24072,0.19854
3421.31214,0.19877
3419.38355,0.19907
3417.45497,0.19955
3415.52638,0.20008
3413.59779,0.20039
3411.66921,0.20054
3409.74062,0.20085
3407.81203,0.20105
3405.88345,0.20129
3403.95486,0.20165
3402.02628,0.20183
3400.09769,0.20196
3398.16910,0.20216
3396.24052,0.20238
3394.31193,0.20254
3392.38334,0.20269
3390.45476,0.20287
3388.52617,0.20307
3386.59758,0.20329
3384.66900,0.20337
3382.74041,0.20347
3380.81183,0.20363
3378.88324,0.20371
3376.95465,0.20386
3375.02607,0.20394
3373.09748,0.20396
3371.16889,0.20404
3369.24031,0.20425
3367.31172,0.20457
3365.38314,0.20474
3363.45455,0.20483
3361.52596,0.20483
3359.59738,0.20477
3357.66879,0.20493
3355.74020,0.20502
3353.81162,0.20504
3351.88303,0.20519
3349.95444,0.20533
3348.02586,0.20540
3346.09727,0.20537
3344.16869,0.20538
3342.24010,0.20540
3340.31151,0.20532
3338.38293,0.20521
3336.45434,0.20514
3334.52575,0.20514
3332.59717,0.20517
3330.66858,0.20532
3328.73999,0.20534
3326.81141,0.20513
3324.88282,0.20507
3322.95424,0.20502
3321.02565,0.20473
3319.09706,0.20450
3317.16848,0.20462
3315.23989,0.20467
3313.31130,0.20445
3311.38272,0.20427
3309.45413,0.20422
3307.52555,0.20416
3305.59696,0.20394
3303.66837,0.20373
3301.73979,0.20358
3299.81120,0.20347
3297.88261,0.20336
3295.95403,0.20298
3294.02544,0.20264
3292.09685,0.20255
3290.16827,0.20228
3288.23968,0.20185
3286.31110,0.20147
3284.38251,0.20100
3282.45392,0.20047
3280.52534,0.20008
3278.59675,0.19967
3276.66816,0.19910
3274.73958,0.19841
3272.81099,0.19776
3270.88241,0.19709
3268.95382,0.19637
3267.02523,0.19564
3265.09665,0.19478
3263.16806,0.19395
3261.23947,0.19315
3259.31089,0.19221
3257.38230,0.19137
3255.45371,0.19073
3253.52513,0.19003
3251.59654,0.18919
3249.66796,0.18838
3247.73937,0.18755
3245.81078,0.18663
3243.88220,0.18577
3241.95361,0.18497
3240.02502,0.18428
3238.09644,0.18353
3236.16785,0.18264
3234.23927,0.18195
3232.31068,0.18142
3230.38209,0.18070
3228.45351,0.17986
3226.52492,0.17920
3224.59633,0.17858
3222.66775,0.17784
3220.73916,0.17719
3218.81057,0.17647
3216.88199,0.17567
3214.95340,0.17505
3213.02482,0.17433
3211.09623,0.17351
3209.16764,0.17273
3207.23906,0.17182
3205.31047,0.17094
3203.38188,0.17031
3201.45330,0.16973
3199.52471,0.16916
3197.59612,0.16856
3195.66754,0.16765
3193.73895,0.16673
3191.81037,0.16599
3189.88178,0.16514
3187.95319,0.16430
3186.02461,0.16345
3184.09602,0.16264
3182.16743,0.16196
3180.23885,0.16112
3178.31026,0.16032
3176.38168,0.15971
3174.45309,0.15887
3172.52450,0.15792
3170.59592,0.15716
3168.66733,0.15641
3166.73874,0.15558
3164.81016,0.15460
3162.88157,0.15369
3160.95298,0.15300
3159.02440,0.15227
3157.09581,0.15156
3155.16723,0.15086
3153.23864,0.15015
3151.31005,0.14948
3149.38147,0.14879
3147.45288,0.14822
3145.52429,0.14755
3143.59571,0.14683
3141.66712,0.14632
3139.73854,0.14563
3137.80995,0.14488
3135.88136,0.14439
3133.95278,0.14390
3132.02419,0.14329
3130.09560,0.14273
3128.16702,0.14222
3126.23843,0.14177
3124.30984,0.14125
3122.38126,0.14060
3120.45267,0.14012
3118.52409,0.13978
3116.59550,0.13933
3114.66691,0.13883
3112.73833,0.13839
3110.80974,0.13810
3108.88115,0.13775
3106.95257,0.13728
3105.02398,0.13690
3103.09540,0.13647
3101.16681,0.13603
3099.23822,0.13571
3097.30964,0.13531
3095.38105,0.13495
3093.45246,0.13463
3091.52388,0.13424
3089.59529,0.13396
3087.66670,0.13358
3085.73812,0.13314
3083.80953,0.13286
3081.88095,0.13249
3079.95236,0.13199
3078.02377,0.13150
3076.09519,0.13100
3074.16660,0.13060
3072.23801,0.13015
3070.30943,0.12958
3068.38084,0.12900
3066.45225,0.12854
3064.52367,0.12821
3062.59508,0.12772
3060.66650,0.12697
3058.73791,0.12626
3056.80932,0.12562
3054.88074,0.12502
3052.95215,0.12445
3051.02356,0.12381
3049.09498,0.12305
3047.16639,0.12237
3045.23781,0.12184
3043.30922,0.12133
3041.38063,0.12073
3039.45205,0.12018
3037.52346,0.11974
3035.59487,0.11933
3033.66629,0.11889
3031.73770,0.11831
3029.80911,0.11770
3027.88053,0.11736
3025.95194,0.11705
3024.02336,0.11661
3022.09477,0.11629
3020.16618,0.11609
3018.23760,0.11593
3016.30901,0.11584
3014.38042,0.11589
3012.45184,0.11594
3010.52325,0.11592
3008.59467,0.11610
3006.66608,0.11641
3004.73749,0.11656
3002.80891,0.11678
3000.88032,0.11719
2998.95173,0.11765
2997.02315,0.11825
2995.09456,0.11906
2993.16597,0.11986
2991.23739,0.12061
2989.30880,0.12147
2987.38022,0.12267
2985.45163,0.12419
2983.52304,0.12577
2981.59446,0.12737
2979.66587,0.12908
2977.73728,0.13094
2975.80870,0.13292
2973.88011,0.13493
2971.95153,0.13709
2970.02294,0.13953
2968.09435,0.14201
2966.16577,0.14436
2964.23718,0.14674
2962.30859,0.14915
2960.38001,0.15141
2958.45142,0.15333
2956.52283,0.15489
2954.59425,0.15626
2952.66566,0.15770
2950.73708,0.15934
2948.80849,0.16137
2946.87990,0.16394
2944.95132,0.16710
2943.02273,0.17081
2941.09414,0.17489
2939.16556,0.17925
2937.23697,0.18384
2935.30838,0.18864
2933.37980,0.19356
2931.45121,0.19830
2929.52263,0.20254
2927.59404,0.20622
2925.66545,0.20915
2923.73687,0.21093
2921.80828,0.21151
2919.87969,0.21070
2917.95111,0.20746
2916.02252,0.20081
2914.09394,0.19160
2912.16535,0.18237
2910.23676,0.17486
2908.30818,0.16910
2906.37959,0.16455
2904.45100,0.16085
2902.52242,0.15769
2900.59383,0.15460
2898.66524,0.15159
2896.73666,0.14892
2894.80807,0.14638
2892.87949,0.14385
2890.95090,0.14151
2889.02231,0.13932
2887.09373,0.13719
2885.16514,0.13536
2883.23655,0.13392
2881.30797,0.13274
2879.37938,0.13196
2877.45080,0.13153
2875.52221,0.13128
2873.59362,0.13137
2871.66504,0.13180
2869.73645,0.13227
2867.80786,0.13285
2865.87928,0.13398
2863.95069,0.13597
2862.02210,0.13918
2860.09352,0.14382
2858.16493,0.14934
2856.23635,0.15512
2854.30776,0.16030
2852.37917,0.16325
2850.45059,0.16170
2848.52200,0.15423
2846.59341,0.14284
2844.66483,0.13143
2842.73624,0.12188
2840.80766,0.11417
2838.87907,0.10792
2836.95048,0.10288
2835.02190,0.09887
2833.09331,0.09554
2831.16472,0.09270
2829.23614,0.09036
2827.30755,0.08836
2825.37896,0.08644
2823.45038,0.08470
2821.52179,0.08319
2819.59321,0.08175
2817.66462,0.08041
2815.73603,0.07919
2813.80745,0.07805
2811.87886,0.07696
2809.95027,0.07593
2808.02169,0.07504
2806.09310,0.07420
2804.16451,0.07337
2802.23593,0.07247
2800.30734,0.07156
2798.37876,0.07074
2796.45017,0.06992
2794.52158,0.06923
2792.59300,0.06867
2790.66441,0.06803
2788.73582,0.06728
2786.80724,0.06653
2784.87865,0.06591
2782.95007,0.06532
2781.02148,0.06467
2779.09289,0.06407
2777.16431,0.06366
2775.23572,0.06323
2773.30713,0.06261
2771.37855,0.06208
2769.44996,0.06177
2767.52137,0.06138
2765.59279,0.06087
2763.66420,0.06037
2761.73562,0.05993
2759.80703,0.05954
2757.87844,0.05918
2755.94986,0.05885
2754.02127,0.05854
2752.09268,0.05821
2750.16410,0.05786
2748.23551,0.05751
2746.30693,0.05714
2744.37834,0.05674
2742.44975,0.05640
2740.52117,0.05615
2738.59258,0.05578
2736.66399,0.05535
2734.73541,0.05502
2732.80682,0.05469
2730.87823,0.05437
2728.94965,0.05414
2727.02106,0.05382
2725.09248,0.05336
2723.16389,0.05290
2721.23530,0.05252
2719.30672,0.05219
2717.37813,0.05182
2715.44954,0.05145
2713.52096,0.05103
2711.59237,0.05056
2709.66379,0.05018
2707.73520,0.04985
2705.80661,0.04944
2703.87803,0.04904
2701.94944,0.04877
2700.02085,0.04849
2698.09227,0.04822
2696.16368,0.04800
2694.23509,0.04767
2692.30651,0.04738
2690.37792,0.04710
2688.44934,0.04678
2686.52075,0.04653
2684.59216,0.04625
2682.66358,0.04602
2680.73499,0.04573
2678.80640,0.04540
2676.87782,0.04514
2674.94923,0.04492
2673.02064,0.04471
2671.09206,0.04436
2669.16347,0.04396
2667.23489,0.04362
2665.30630,0.04337
2663.37771,0.04315
2661.44913,0.04289
2659.52054,0.04256
2657.59195,0.04218
2655.66337,0.04184
2653.73478,0.04165
2651.80620,0.04148
2649.87761,0.04123
2647.94902,0.04096
2646.02044,0.04069
2644.09185,0.04041
2642.16326,0.04013
2640.23468,0.03982
2638.30609,0.03946
2636.37750,0.03914
2634.44892,0.03895
2632.52033,0.03878
2630.59175,0.03851
2628.66316,0.03820
2626.73457,0.03786
2624.80599,0.03762
2622.87740,0.03743
2620.94881,0.03707
2619.02023,0.03673
2617.09164,0.03639
2615.16306,0.03601
2613.23447,0.03576
2611.30588,0.03557
2609.37730,0.03532
2607.44871,0.03507
2605.52012,0.03487
2603.59154,0.03446
2601.66295,0.03408
2599.73436,0.03390
2597.80578,0.03360
2595.87719,0.03329
2593.94861,0.03308
2592.02002,0.03281
2590.09143,0.03250
2588.16285,0.03223
2586.23426,0.03198
2584.30567,0.03164
2582.37709,0.03129
2580.44850,0.03100
2578.51991,0.03077
2576.59133,0.03053
2574.66274,0.03034
2572.73416,0.03017
2570.80557,0.02984
2568.87698,0.02950
2566.94840,0.02920
2565.01981,0.02899
2563.09122,0.02887
2561.16264,0.02855
2559.23405,0.02825
2557.30547,0.02803
2555.37688,0.02782
2553.44829,0.02770
2551.51971,0.02742
2549.59112,0.02708
2547.66253,0.02690
2545.73395,0.02677
2543.80536,0.02662
2541.87677,0.02635
2539.94819,0.02605
2538.01960,0.02579
2536.09102,0.02560
2534.16243,0.02541
2532.23384,0.02525
2530.30526,0.02513
2528.37667,0.02490
2526.44808,0.02462
2524.51950,0.02439
2522.59091,0.02418
2520.66233,0.02397
2518.73374,0.02377
2516.80515,0.02350
2514.87657,0.02317
2512.94798,0.02297
2511.01939,0.02275
2509.09081,0.02243
2507.16222,0.02220
2505.23363,0.02203
2503.30505,0.02182
2501.37646,0.02154
2499.44788,0.02128
2497.51929,0.02105
2495.59070,0.02081
2493.66212,0.02057
2491.73353,0.02032
2489.80494,0.02006
2487.87636,0.01974
2485.94777,0.01945
2484.01919,0.01922
2482.09060,0.01899
2480.16201,0.01874
2478.23343,0.01846
2476.30484,0.01825
2474.37625,0.01805
2472.44767,0.01775
2470.51908,0.01745
2468.59049,0.01719
2466.66191,0.01696
2464.73332,0.01672
2462.80474,0.01650
2460.87615,0.01631
2458.94756,0.01602
2457.01898,0.01570
2455.09039,0.01547
2453.16180,0.01526
2451.23322,0.01504
2449.30463,0.01477
2447.37604,0.01451
2445.44746,0.01429
2443.51887,0.01405
2441.59029,0.01387
2439.66170,0.01369
2437.73311,0.01346
2435.80453,0.01319
2433.87594,0.01292
2431.94735,0.01271
2430.01877,0.01242
2428.09018,0.01213
2426.16160,0.01199
2424.23301,0.01185
2422.30442,0.01165
2420.37584,0.01135
2418.44725,0.01107
2416.51866,0.01087
2414.59008,0.01063
2412.66149,0.01042
2410.73290,0.01030
2408.80432,0.01014
2406.87573,0.00984
2404.94715,0.00953
2403.01856,0.00933
2401.08997,0.00922
2399.16139,0.00904
2397.23280,0.00878
2395.30421,0.00856
2393.37563,0.00834
2391.44704,0.00812
2389.51846,0.00787
2387.58987,0.00767
2385.66128,0.00746
2383.73270,0.00721
2381.80411,0.00711
2379.87552,0.00704
2377.94694,0.00683
2376.01835,0.00653
2374.08976,0.00627
2372.16118,0.00599
2370.23259,0.00573
2368.30401,0.00548
2366.37542,0.00516
2364.44683,0.00490
2362.51825,0.00472
2360.58966,0.00464
2358.66107,0.00462
2356.73249,0.00456
2354.80390,0.00448
2352.87532,0.00438
2350.94673,0.00437
2349.01814,0.00438
2347.08956,0.00424
2345.16097,0.00406
2343.23238,0.00390
2341.30380,0.00377
2339.37521,0.00367
2337.44662,0.00354
2335.51804,0.00329
2333.58945,0.00309
2331.66087,0.00304
2329.73228,0.00302
2327.80369,0.00297
2325.87511,0.00283
2323.94652,0.00271
2322.01793,0.00278
2320.08935,0.00275
2318.16076,0.00260
2316.23217,0.00251
2314.30359,0.00242
2312.37500,0.00230
2310.44642,0.00213
2308.51783,0.00203
2306.58924,0.00203
2304.66066,0.00195
2302.73207,0.00193
2300.80348,0.00191
2298.87490,0.00181
2296.94631,0.00177
2295.01773,0.00165
2293.08914,0.00154
2291.16055,0.00153
2289.23197,0.00154
2287.30338,0.00152
2285.37479,0.00139
2283.44621,0.00125
2281.51762,0.00121
2279.58903,0.00119
2277.66045,0.00115
2275.73186,0.00110
2273.80328,0.00097
2271.87469,0.00088
2269.94610,0.00083
2268.01752,0.00076
2266.08893,0.00077
2264.16034,0.00079
2262.23176,0.00079
2260.30317,0.00074
2258.37459,0.00064
2256.44600,0.00061
2254.51741,0.00057
2252.58883,0.00058
2250.66024,0.00065
2248.73165,0.00061
2246.80307,0.00052
2244.87448,0.00046
2242.94589,0.00042
2241.01731,0.00040
2239.08872,0.00043
2237.16014,0.00038
2235.23155,0.00034
2233.30296,0.00038
2231.37438,0.00039
2229.44579,0.00036
2227.51720,0.00028
2225.58862,0.00023
2223.66003,0.00023
2221.73145,0.00019
2219.80286,0.00014
2217.87427,0.00009
2215.94569,0.00007
2214.01710,0.00007
2212.08851,0.00007
2210.15993,0.00009
2208.23134,0.00003
2206.30275,-0.00005
2204.37417,-0.00009
2202.44558,-0.00011
2200.51700,-0.00004
2198.58841,-0.00006
2196.65982,-0.00005
2194.73124,0.00004
2192.80265,0.00000
2190.87406,-0.00005
2188.94548,-0.00004
2187.01689,0.00000
2185.08830,0.00004
2183.15972,0.00015
2181.23113,0.00027
2179.30255,0.00023
2177.37396,0.00019
2175.44537,0.00018
2173.51679,0.00013
2171.58820,0.00004
2169.65961,0.00000
2167.73103,0.00012
2165.80244,0.00027
2163.87386,0.00030
2161.94527,0.00030
2160.01668,0.00028
2158.08810,0.00027
2156.15951,0.00026
2154.23092,0.00027
2152.30234,0.00029
2150.37375,0.00030
2148.44516,0.00034
2146.51658,0.00033
2144.58799,0.00024
2142.65941,0.00025
2140.73082,0.00032
2138.80223,0.00029
2136.87365,0.00021
2134.94506,0.00019
2133.01647,0.00025
2131.08789,0.00022
2129.15930,0.00007
2127.23072,0.00000
2125.30213,0.00003
2123.37354,0.00004
2121.44496,-0.00001
2119.51637,-0.00006
2117.58778,-0.00001
2115.65920,0.00004
2113.73061,0.00002
2111.80202,-0.00008
2109.87344,-0.00015
2107.94485,-0.00012
2106.01627,-0.00009
2104.08768,-0.00008
2102.15909,-0.00009
2100.23051,-0.00004
2098.30192,-0.00002
2096.37333,-0.00004
2094.44475,-0.00006
2092.51616,-0.00011
2090.58758,-0.00005
2088.65899,-0.00000
2086.73040,-0.00003
2084.80182,-0.00006
2082.87323,-0.00009
2080.94464,0.00000
2079.01606,-0.00001
2077.08747,-0.00002
2075.15888,0.00005
2073.23030,0.00004
2071.30171,-0.00006
2069.37313,-0.00014
2067.44454,-0.00010
2065.51595,-0.00013
2063.58737,-0.00011
2061.65878,-0.00005
2059.73019,-0.00007
2057.80161,-0.00002
2055.87302,-0.00005
2053.94443,-0.00001
2052.01585,0.00016
2050.08726,0.00025
2048.15868,0.00034
2046.23009,0.00048
2044.30150,0.00072
2042.37292,0.00089
2040.44433,0.00101
2038.51574,0.00118
2036.58716,0.00140
2034.65857,0.00169
2032.72999,0.00188
2030.80140,0.00205
2028.87281,0.00217
2026.94423,0.00228
2025.01564,0.00236
2023.08705,0.00234
2021.15847,0.00238
2019.22988,0.00246
2017.30129,0.00257
2015.37271,0.00279
2013.44412,0.00294
2011.51554,0.00302
2009.58695,0.00318
2007.65836,0.00336
2005.72978,0.00352
2003.80119,0.00367
2001.87260,0.00372
1999.94402,0.00377
1998.01543,0.00378
1996.08685,0.00377
1994.15826,0.00375
1992.22967,0.00362
1990.30109,0.00357
1988.37250,0.00352
1986.44391,0.00342
1984.51533,0.00331
1982.58674,0.00320
1980.65815,0.00313
1978.72957,0.00299
1976.80098,0.00284
1974.87240,0.00270
1972.94381,0.00260
1971.01522,0.00250
1969.08664,0.00232
1967.15805,0.00215
1965.22946,0.00192
1963.30088,0.00167
1961.37229,0.00142
1959.44371,0.00116
1957.51512,0.00105
1955.58653,0.00097
1953.65795,0.00090
1951.72936,0.00086
1949.80077,0.00078
1947.87219,0.00069
1945.94360,0.00060
1944.01501,0.00043
1942.08643,0.00030
1940.15784,0.00024
1938.22926,0.00014
1936.30067,0.00007
1934.37208,0.00005
1932.44350,0.00002
1930.51491,-0.00005
1928.58632,-0.00008
1926.65774,-0.00003
1924.72915,0.00000
1922.80056,-0.00005
1920.87198,-0.00005
1918.94339,0.00004
1917.01481,0.00022
1915.08622,0.00043
1913.15763,0.00081
1911.22905,0.00129
1909.30046,0.00178
1907.37187,0.00232
1905.44329,0.00290
1903.51470,0.00350
1901.58612,0.00409
1899.65753,0.00465
1897.72894,0.00510
1895.80036,0.00552
1893.87177,0.00603
1891.94318,0.00654
1890.01460,0.00695
1888.08601,0.00729
1886.15742,0.00759
1884.22884,0.00784
1882.30025,0.00807
1880.37167,0.00823
1878.44308,0.00829
1876.51449,0.00839
1874.58591,0.00850
1872.65732,0.00852
1870.72873,0.00850
1868.80015,0.00843
1866.87156,0.00820
1864.94298,0.00782
1863.01439,0.00732
1861.08580,0.00673
1859.15722,0.00604
1857.22863,0.00523
1855.30004,0.00441
1853.37146,0.00358
1851.44287,0.00283
1849.51428,0.00218
1847.58570,0.00160
1845.65711,0.00111
1843.72853,0.00059
1841.79994,0.00022
1839.87135,0.00000
1837.94277,-0.00026
1836.01418,-0.00042
1834.08559,-0.00051
1832.15701,-0.00046
1830.22842,-0.00040
1828.29984,-0.00032
1826.37125,-0.00016
1824.44266,0.00017
1822.51408,0.00062
1820.58549,0.00100
1818.65690,0.00145
1816.72832,0.00207
1814.79973,0.00283
1812.87114,0.00359
1810.94256,0.00442
1809.01397,0.00534
1807.08539,0.00629
1805.15680,0.00744
1803.22821,0.00873
1801.29963,0.01016
1799.37104,0.01170
1797.44245,0.01326
1795.51387,0.01488
1793.58528,0.01660
1791.65669,0.01839
1789.72811,0.02023
1787.79952,0.02220
1785.87094,0.02432
1783.94235,0.02651
1782.01376,0.02853
1780.08518,0.03049
1778.15659,0.03249
1776.22800,0.03434
1774.29942,0.03625
1772.37083,0.03806
1770.44225,0.03977
1768.51366,0.04157
1766.58507,0.04337
1764.65649,0.04526
1762.72790,0.04716
1760.79931,0.04920
1758.87073,0.05137
1756.94214,0.05378
1755.01355,0.05645
1753.08497,0.05922
1751.15638,0.06241
1749.22780,0.06584
1747.29921,0.06952
1745.37062,0.07349
1743.44204,0.07765
1741.51345,0.08187
1739.58486,0.08600
1737.65628,0.08979
1735.72769,0.09323
1733.79911,0.09646
1731.87052,0.09906
1729.94193,0.10145
1728.01335,0.10400
1726.08476,0.10658
1724.15617,0.10913
1722.22759,0.11170
1720.29900,0.11429
1718.37041,0.11673
1716.44183,0.11921
1714.51324,0.12151
1712.58466,0.12365
1710.65607,0.12581
1708.72748,0.12758
1706.79890,0.12926
1704.87031,0.13103
1702.94172,0.13301
1701.01314,0.13520
1699.08455,0.13741
1697.15596,0.13978
1695.22738,0.14218
1693.29879,0.14459
1691.37021,0.14709
1689.44162,0.14966
1687.51303,0.15216
1685.58445,0.15463
1683.65586,0.15734
1681.72727,0.16002
1679.79869,0.16256
1677.87010,0.16510
1675.94152,0.16760
1674.01293,0.17004
1672.08434,0.17233
1670.15576,0.17435
1668.22717,0.17631
1666.29858,0.17807
1664.37000,0.17967
1662.44141,0.18109
1660.51282,0.18212
1658.58424,0.18290
1656.65565,0.18338
1654.72707,0.18373
1652.79848,0.18347
1650.86989,0.18301
1648.94131,0.18287
1647.01272,0.18248
1645.08413,0.18202
1643.15555,0.18163
1641.22696,0.18155
1639.29838,0.18151
1637.36979,0.18151
1635.44120,0.18151
1633.51262,0.18115
1631.58403,0.18083
1629.65544,0.18011
1627.72686,0.17892
1625.79827,0.17737
1623.86968,0.17557
1621.94110,0.17363
1620.01251,0.17170
1618.08393,0.16994
1616.15534,0.16783
1614.22675,0.16585
1612.29817,0.16397
1610.36958,0.16211
1608.44099,0.16048
1606.51241,0.15888
1604.58382,0.15725
1602.65524,0.15552
1600.72665,0.15401
1598.79806,0.15244
1596.86948,0.15081
1594.94089,0.14923
1593.01230,0.14768
1591.08372,0.14620
1589.15513,0.14439
1587.22654,0.14248
1585.29796,0.14067
1583.36937,0.13905
1581.44079,0.13732
1579.51220,0.13563
1577.58361,0.13416
1575.65503,0.13246
1573.72644,0.13131
1571.79785,0.13067
1569.86927,0.13002
1567.94068,0.12930
1566.01209,0.12882
1564.08351,0.12871
1562.15492,0.12874
1560.22634,0.12871
1558.29775,0.12852
1556.36916,0.12869
1554.44058,0.12903
1552.51199,0.12916
1550.58340,0.12922
1548.65482,0.12916
1546.72623,0.12902
1544.79765,0.12868
1542.86906,0.12820
1540.94047,0.12752
1539.01189,0.12642
1537.08330,0.12561
1535.15471,0.12491
1533.22613,0.12392
1531.29754,0.12282
1529.36895,0.12171
1527.44037,0.12053
1525.51178,0.11938
1523.58320,0.11850
1521.65461,0.11779
1519.72602,0.11732
1517.79744,0.11689
1515.86885,0.11594
1513.94026,0.11418
1512.01168,0.11176
1510.08309,0.10923
1508.15451,0.10658
1506.22592,0.10321
1504.29733,0.09984
1502.36875,0.09683
1500.44016,0.09368
1498.51157,0.09038
1496.58299,0.08712
1494.65440,0.08428
1492.72581,0.08202
1490.79723,0.07994
1488.86864,0.07799
1486.94006,0.07655
1485.01147,0.07571
1483.08288,0.07541
1481.15430,0.07569
1479.22571,0.07674
1477.29712,0.07868
1475.36854,0.08160
1473.43995,0.08595
1471.51137,0.09143
1469.58278,0.09677
1467.65419,0.10110
1465.72561,0.10360
1463.79702,0.10481
1461.86843,0.10543
1459.93985,0.10586
1458.01126,0.10664
1456.08267,0.10722
1454.15409,0.10733
1452.22550,0.10701
1450.29692,0.10661
1448.36833,0.10643
1446.43974,0.10615
1444.51116,0.10575
1442.58257,0.10541
1440.65398,0.10521
1438.72540,0.10496
1436.79681,0.10468
1434.86822,0.10463
1432.93964,0.10470
1431.01105,0.10468
1429.08247,0.10455
1427.15388,0.10445
1425.22529,0.10435
1423.29671,0.10447
1421.36812,0.10474
1419.43953,0.10487
1417.51095,0.10490
1415.58236,0.10491
1413.65378,0.10479
1411.72519,0.10434
1409.79660,0.10375
1407.86802,0.10322
1405.93943,0.10275
1404.01084,0.10201
1402.08226,0.10109
1400.15367,0.10023
1398.22508,0.09925
1396.29650,0.09831
1394.36791,0.09747
1392.43933,0.09679
1390.51074,0.09637
1388.58215,0.09601
1386.65357,0.09549
1384.72498,0.09511
1382.79639,0.09550
1380.86781,0.09633
1378.93922,0.09665
1377.01064,0.09637
1375.08205,0.09566
1373.15346,0.09462
1371.22488,0.09344
1369.29629,0.09233
1367.36770,0.09119
1365.43912,0.08983
1363.51053,0.08841
1361.58194,0.08711
1359.65336,0.08601
1357.72477,0.08517
1355.79619,0.08430
1353.86760,0.08336
1351.93901,0.08266
1350.01043,0.08196
1348.08184,0.08123
1346.15325,0.08070
1344.22467,0.08022
1342.29608,0.07976
1340.36750,0.07919
1338.43891,0.07852
1336.51032,0.07805
1334.58174,0.07772
1332.65315,0.07739
1330.72456,0.07706
1328.79598,0.07671
1326.86739,0.07630
1324.93880,0.07581
1323.01022,0.07536
1321.08163,0.07511
1319.15305,0.07494
1317.22446,0.07462
1315.29587,0.07425
1313.36729,0.07401
1311.43870,0.07374
1309.51011,0.07337
1307.58153,0.07313
1305.65294,0.07300
1303.72435,0.07290
1301.79577,0.07285
1299.86718,0.07291
1297.93860,0.07309
1296.01001,0.07322
1294.08142,0.07359
1292.15284,0.07426
1290.22425,0.07496
1288.29566,0.07593
1286.36708,0.07709
1284.43849,0.07832
1282.50991,0.07967
1280.58132,0.08106
1278.65273,0.08247
1276.72415,0.08396
1274.79556,0.08573
1272.86697,0.08757
1270.93839,0.08933
1269.00980,0.09121
1267.08121,0.09331
1265.15263,0.09566
1263.22404,0.09818
1261.29546,0.10105
1259.36687,0.10436
1257.43828,0.10803
1255.50970,0.11210
1253.58111,0.11660
1251.65252,0.12151
1249.72394,0.12645
1247.79535,0.13117
1245.86677,0.13571
1243.93818,0.14005
1242.00959,0.14419
1240.08101,0.14805
1238.15242,0.15147
1236.22383,0.15436
1234.29525,0.15702
1232.36666,0.15964
1230.43807,0.16199
1228.50949,0.16415
1226.58090,0.16627
1224.65232,0.16843
1222.72373,0.17042
1220.79514,0.17222
1218.86656,0.17410
1216.93797,0.17609
1215.00938,0.17798
1213.08080,0.17956
1211.15221,0.18133
1209.22363,0.18341
1207.29504,0.18526
1205.36645,0.18695
1203.43787,0.18872
1201.50928,0.19046
1199.58069,0.19203
1197.65211,0.19349
1195.72352,0.19482
1193.79493,0.19607
1191.86635,0.19749
1189.93776,0.19899
1188.00918,0.20044
1186.08059,0.20184
1184.15200,0.20344
1182.22342,0.20528
1180.29483,0.20710
1178.36624,0.20906
1176.43766,0.21121
1174.50907,0.21343
1172.58048,0.21586
1170.65190,0.21851
1168.72331,0.22098
1166.79473,0.22339
1164.86614,0.22606
1162.93755,0.22832
1161.00897,0.22970
1159.08038,0.23066
1157.15179,0.23149
1155.22321,0.23224
1153.29462,0.23343
1151.36604,0.23482
1149.43745,0.23600
1147.50886,0.23754
1145.58028,0.23959
1143.65169,0.24183
1141.72310,0.24427
1139.79452,0.24717
1137.86593,0.25047
1135.93734,0.25370
1134.00876,0.25672
1132.08017,0.25981
1130.15159,0.26330
1128.22300,0.26730
1126.29441,0.27186
1124.36583,0.27636
1122.43724,0.28079
1120.50865,0.28596
1118.58007,0.29134
1116.65148,0.29684
1114.72290,0.30236
1112.79431,0.30762
1110.86572,0.31310
1108.93714,0.31870
1107.00855,0.32397
1105.07996,0.32857
1103.15138,0.33241
1101.22279,0.33552
1099.29420,0.33799
1097.36562,0.33999
1095.43703,0.34170
1093.50845,0.34276
1091.57986,0.34275
1089.65127,0.34252
1087.72269,0.34226
1085.79410,0.34168
1083.86551,0.34062
1081.93693,0.33964
1080.00834,0.33906
1078.07976,0.33765
1076.15117,0.33657
1074.22258,0.33596
1072.29400,0.33472
1070.36541,0.33363
1068.43682,0.33249
1066.50824,0.33141
1064.57965,0.33069
1062.65106,0.33026
1060.72248,0.32947
1058.79389,0.32747
1056.86531,0.32514
1054.93672,0.32301
1053.00813,0.32101
1051.07955,0.31915
1049.15096,0.31748
1047.22237,0.31656
1045.29379,0.31696
1043.36520,0.31802
1041.43661,0.31872
1039.50803,0.31948
1037.57944,0.32027
1035.65086,0.32053
1033.72227,0.32017
1031.79368,0.31922
1029.86510,0.31784
1027.93651,0.31581
1026.00792,0.31312
1024.07934,0.30993
1022.15075,0.30676
1020.22217,0.30398
1018.29358,0.30099
1016.36499,0.29818
1014.43641,0.29575
1012.50782,0.29297
1010.57923,0.29022
1008.65065,0.28754
1006.72206,0.28421
1004.79347,0.28039
1002.86489,0.27660
1000.93630,0.27265
999.00772,0.26824
997.07913,0.26397
995.15054,0.25975
993.22196,0.25472
991.29337,0.24929
989.36478,0.24417
987.43620,0.23884
985.50761,0.23297
983.57903,0.22664
981.65044,0.21958
979.72185,0.21198
977.79327,0.20401
975.86468,0.19567
973.93609,0.18725
972.00751,0.17886
970.07892,0.17090
968.15033,0.16323
966.22175,0.15557
964.29316,0.14853
962.36458,0.14205
960.43599,0.13614
958.50740,0.13128
956.57882,0.12708
954.65023,0.12316
952.72164,0.11950
950.79306,0.11637
948.86447,0.11376
946.93589,0.11148
945.00730,0.10968
943.07871,0.10826
941.15013,0.10691
939.22154,0.10536
937.29295,0.10383
935.36437,0.10252
933.43578,0.10130
931.50719,0.09999
929.57861,0.09858
927.65002,0.09738
925.72144,0.09642
923.79285,0.09572
921.86426,0.09529
919.93568,0.09501
918.00709,0.09497
916.07850,0.09470
914.14992,0.09371
912.22133,0.09199
910.29274,0.08915
908.36416,0.08526
906.43557,0.08055
904.50699,0.07521
902.57840,0.06985
900.64981,0.06449
898.72123,0.05919
896.79264,0.05438
894.86405,0.04990
892.93547,0.04581
891.00688,0.04245
889.07830,0.03937
887.14971,0.03589
885.22112,0.03259
883.29254,0.02988
881.36395,0.02724
879.43536,0.02488
877.50678,0.02263
875.57819,0.02010
873.64960,0.01741
871.72102,0.01436
869.79243,0.01133
867.86385,0.00889
865.93526,0.00700
864.00667,0.00513
862.07809,0.00337
860.14950,0.00214
858.22091,0.00114
856.29233,0.00044
854.36374,0.00000
852.43516,-0.00020
850.50657,-0.00002
848.57798,0.00053
846.64940,0.00187
844.72081,0.00352
842.79222,0.00595
840.86364,0.00930
838.93505,0.01230
837.00646,0.01536
835.07788,0.01890
833.14929,0.02191
831.22071,0.02400
829.29212,0.02560
827.36353,0.02673
825.43495,0.02773
823.50636,0.02880
821.57777,0.02952
819.64919,0.03030
817.72060,0.03133
815.79201,0.03289
813.86343,0.03510
811.93484,0.03801
810.00626,0.04227
808.07767,0.04799
806.14908,0.05477
804.22050,0.06102
802.29191,0.06603
800.36332,0.06918
798.43474,0.06908
796.50615,0.06578
794.57757,0.06014
792.64898,0.05496
790.72039,0.05165
788.79181,0.04890
786.86322,0.04702
784.93463,0.04705
783.00605,0.04870
781.07746,0.04944
779.14887,0.04769
777.22029,0.04391
775.29170,0.03826
773.36312,0.03244
771.43453,0.02780
769.50594,0.02420
767.57736,0.02213
765.64877,0.02163
763.72018,0.02154
761.79160,0.02099
759.86301,0.02073
757.93443,0.02112
756.00584,0.02122
754.07725,0.02104
752.14867,0.02072
750.22008,0.02017
748.29149,0.01891
746.36291,0.01674
744.43432,0.01477
742.50573,0.01284
740.57715,0.01059
738.64856,0.00863
736.71998,0.00666
734.79139,0.00483
732.86280,0.00379
730.93422,0.00380
729.00563,0.00392
727.07704,0.00376
725.14846,0.00418
723.21987,0.00423
721.29129,0.00341
719.36270,0.00238
717.43411,0.00105
715.50553,0.00029
713.57694,0.00003
711.64835,-0.00022
709.71977,0.00012
707.79118,0.00122
705.86259,0.00318
703.93401,0.00551
702.00542,0.00817
700.07684,0.01204
698.14825,0.01676
696.21966,0.02055
694.29108,0.02013
692.36249,0.01635
690.43390,0.01316
688.50532,0.01039
686.57673,0.00807
684.64814,0.00674
682.71956,0.00526
680.79097,0.00413
678.86239,0.00371
676.93380,0.00312
675.00521,0.00223
673.07663,0.00170
671.14804,0.00128
669.21945,0.00063
667.29087,0.00067
665.36228,0.00086
663.43370,0.00003
661.50511,-0.00045
659.57652,0.00000
657.64794,-0.00024
655.71935,-0.00011
653.79076,0.00120
651.86218,0.00216
649.93359,0.00211
648.00500,0.00226
646.07642,0.00315
644.14783,0.00325
642.21925,0.00350
640.29066,0.00454
638.36207,0.00424
636.43349,0.00334
634.50490,0.00361
632.57631,0.00444
630.64773,0.00455
628.71914,0.00513
626.79056,0.00598
624.86197,0.00551
622.93338,0.00587
621.00480,0.00718
619.07621,0.00792
617.14762,0.00835
615.21904,0.00910
613.29045,0.01029
611.36186,0.01152
609.43328,0.01285
607.50469,0.01344
605.57611,0.01435
603.64752,0.01581
601.71893,0.01595
599.79035,0.01637
597.86176,0.01844
595.93317,0.02131
594.00459,0.02295
592.07600,0.02400
590.14742,0.02727
588.21883,0.03114
586.29024,0.03399
584.36166,0.03713
582.43307,0.04040
580.50448,0.04321
578.57590,0.04620
576.64731,0.04996
574.71872,0.05456
572.79014,0.05884
570.86155,0.06255
568.93297,0.06623
567.00438,0.07025
565.07579,0.07557
563.14721,0.07984
561.21862,0.08287
559.29003,0.08706
557.36145,0.09077
555.43286,0.09468
553.50427,0.09913
551.57569,0.10326
549.64710,0.10756
547.71852,0.11022
545.78993,0.11151
543.86134,0.11527
541.93276,0.12167
540.00417,0.12632
538.07558,0.13094
536.14700,0.13725
534.21841,0.13976
532.28983,0.14147
530.36124,0.14504
528.43265,0.14447
526.50407,0.14143
524.57548,0.13961
522.64689,0.13716
520.71831,0.13412
518.78972,0.13172
516.86113,0.12899
514.93255,0.12391
513.00396,0.11763
511.07538,0.11363
509.14679,0.11050
507.21820,0.10720
505.28962,0.10634
503.36103,0.10690
501.43244,0.10959
499.50386,0.11417
497.57527,0.11773
495.64669,0.12255
493.71810,0.12861
491.78951,0.13472
489.86093,0.14481
487.93234,0.15765
486.00375,0.16832
484.07517,0.17865
482.14658,0.18947
480.21799,0.19582
478.28941,0.20032
476.36082,0.20921
474.43224,0.21551
472.50365,0.21332
470.57506,0.21149
468.64648,0.20840
466.71789,0.20172
464.78930,0.19800
462.86072,0.18754
460.93213,0.17161
459.00355,0.16282
457.07496,0.15865
455.14637,0.15051
453.21779,0.13704
451.28920,0.12447
449.36061,0.11456
447.43203,0.11024
445.50344,0.10873
443.57485,0.10273
441.64627,0.09479
439.71768,0.08737
437.78910,0.08231
435.86051,0.07749
433.93192,0.07308
432.00334,0.07139
430.07475,0.06953
428.14616,0.06651
426.21758,0.06230
424.28899,0.05711
422.36040,0.05179
420.43182,0.04938
418.50323,0.04642
416.57465,0.04262
414.64606,0.03877
412.71747,0.03143
410.78889,0.02463
408.86030,0.01689
406.93171,0.01224
405.00313,0.01219
403.07454,0.00754
401.14596,0.00000
399.21737,0.00000
