3747.24323,0.00000
3745.31464,0.00196
3743.38605,0.00020
3741.45747,0.00006
3739.52888,0.00231
3737.60030,0.00330
3735.67171,0.00327
3733.74312,0.00329
3731.81454,0.00366
3729.88595,0.00402
3727.95736,0.00537
3726.02878,0.00632
3724.10019,0.00685
3722.17161,0.00823
3720.24302,0.00925
3718.31443,0.01106
3716.38585,0.01321
3714.45726,0.01607
3712.52867,0.01887
3710.60009,0.02022
3708.67150,0.02276
3706.74291,0.02583
3704.81433,0.02948
3702.88574,0.03275
3700.95716,0.03459
3699.02857,0.03674
3697.09998,0.03835
3695.17140,0.03956
3693.24281,0.04032
3691.31422,0.04146
3689.38564,0.04247
3687.45705,0.04270
3685.52846,0.04481
3683.59988,0.04781
3681.67129,0.05073
3679.74271,0.05377
3677.81412,0.05797
3675.88553,0.06128
3673.95695,0.06318
3672.02836,0.06804
3670.09977,0.07205
3668.17119,0.07449
3666.24260,0.07856
3664.31402,0.08243
3662.38543,0.08627
3660.45684,0.08994
3658.52826,0.09387
3656.59967,0.09715
3654.67108,0.09929
3652.74250,0.10301
3650.81391,0.10649
3648.88532,0.10826
3646.95674,0.10979
3645.02815,0.11231
3643.09957,0.11538
3641.17098,0.11801
3639.24239,0.12052
3637.31381,0.12292
3635.38522,0.12567
3633.45663,0.12822
3631.52805,0.13112
3629.59946,0.13356
3627.67088,0.13359
3625.74229,0.13497
3623.81370,0.13711
3621.88512,0.13847
3619.95653,0.13902
3618.02794,0.13761
3616.09936,0.13703
3614.17077,0.13710
3612.24218,0.13664
3610.31360,0.13660
3608.38501,0.13628
3606.45643,0.13587
3604.52784,0.13595
3602.59925,0.13633
3600.67067,0.13651
3598.74208,0.13658
3596.81349,0.13705
3594.88491,0.13744
3592.95632,0.13757
3591.02774,0.13821
3589.09915,0.13934
3587.17056,0.13973
3585.24198,0.13991
3583.31339,0.14086
3581.38480,0.14206
3579.45622,0.14311
3577.52763,0.14411
3575.59904,0.14527
3573.67046,0.14634
3571.74187,0.14738
3569.81329,0.14900
3567.88470,0.15040
3565.95611,0.15110
3564.02753,0.15217
3562.09894,0.15361
3560.17035,0.15494
3558.24177,0.15637
3556.31318,0.15769
3554.38459,0.15903
3552.45601,0.16043
3550.52742,0.16167
3548.59884,0.16316
3546.67025,0.16452
3544.74166,0.16557
3542.81308,0.16673
3540.88449,0.16808
3538.95590,0.16946
3537.02732,0.17051
3535.09873,0.17164
3533.17015,0.17317
3531.24156,0.17464
3529.31297,0.17574
3527.38439,0.17669
3525.45580,0.17787
3523.52721,0.17904
3521.59863,0.18005
3519.67004,0.18121
3517.74145,0.18262
3515.81287,0.18409
3513.88428,0.18532
3511.95570,0.18631
3510.02711,0.18743
3508.09852,0.18860
3506.16994,0.18974
3504.24135,0.19092
3502.31276,0.19180
3500.38418,0.19283
3498.45559,0.19419
3496.52701,0.19528
3494.59842,0.19624
3492.66983,0.19729
3490.74125,0.19847
3488.81266,0.19951
3486.88407,0.20040
3484.95549,0.20134
3483.02690,0.20231
3481.09831,0.20323
3479.16973,0.20404
3477.24114,0.20512
3475.31256,0.20620
3473.38397,0.20698
3471.45538,0.20763
3469.52680,0.20828
3467.59821,0.20918
3465.66962,0.20998
3463.74104,0.21079
3461.81245,0.21166
3459.88386,0.21230
3457.95528,0.21304
3456.02669,0.21385
3454.09811,0.21448
3452.16952,0.21516
3450.24093,0.21602
3448.31235,0.21676
3446.38376,0.21740
3444.45517,0.21800
3442.52659,0.21864
3440.59800,0.21941
3438.66942,0.22019
3436.74083,0.22077
3434.81224,0.22105
3432.88366,0.22171
3430.95507,0.22243
3429.02648,0.22288
3427.09790,0.22344
3425.16931,0.22383
3423.24072,0.22440
3421.31214,0.22496
3419.38355,0.22531
3417.45497,0.22582
3415.52638,0.22614
3413.59779,0.22650
3411.66921,0.22703
3409.74062,0.22745
3407.81203,0.22785
3405.88345,0.22821
3403.95486,0.22852
3402.02628,0.22879
3400.09769,0.22908
3398.16910,0.22946
3396.24052,0.22987
3394.31193,0.23018
3392.38334,0.23040
3390.45476,0.23061
3388.52617,0.23094
3386.59758,0.23134
3384.66900,0.23156
3382.74041,0.23164
3380.81183,0.23162
3378.88324,0.23173
3376.95465,0.23215
3375.02607,0.23249
3373.09748,0.23272
3371.16889,0.23287
3369.24031,0.23292
3367.31172,0.23319
3365.38314,0.23360
3363.45455,0.23399
3361.52596,0.23420
3359.59738,0.23417
3357.66879,0.23413
3355.74020,0.23428
3353.81162,0.23458
3351.88303,0.23455
3349.95444,0.23451
3348.02586,0.23489
3346.09727,0.23504
3344.16869,0.23509
3342.24010,0.23522
3340.31151,0.23504
3338.38293,0.23496
3336.45434,0.23507
3334.52575,0.23508
3332.59717,0.23519
3330.66858,0.23530
3328.73999,0.23521
3326.81141,0.23524
3324.88282,0.23525
3322.95424,0.23520
3321.02565,0.23523
3319.09706,0.23513
3317.16848,0.23503
3315.23989,0.23496
3313.31130,0.23477
3311.38272,0.23455
3309.45413,0.23445
3307.52555,0.23445
3305.59696,0.23439
3303.66837,0.23423
3301.73979,0.23405
3299.81120,0.23382
3297.88261,0.23351
3295.95403,0.23324
3294.02544,0.23300
3292.09685,0.23277
3290.16827,0.23249
3288.23968,0.23199
3286.31110,0.23166
3284.38251,0.23139
3282.45392,0.23089
3280.52534,0.23033
3278.59675,0.22974
3276.66816,0.22914
3274.73958,0.22840
3272.81099,0.22758
3270.88241,0.22682
3268.95382,0.22603
3267.02523,0.22526
3265.09665,0.22447
3263.16806,0.22342
3261.23947,0.22232
3259.31089,0.22152
3257.38230,0.22066
3255.45371,0.21964
3253.52513,0.21863
3251.59654,0.21764
3249.66796,0.21671
3247.73937,0.21578
3245.81078,0.21497
3243.88220,0.21405
3241.95361,0.21302
3240.02502,0.21226
3238.09644,0.21143
3236.16785,0.21046
3234.23927,0.20960
3232.31068,0.20883
3230.38209,0.20808
3228.45351,0.20735
3226.52492,0.20646
3224.59633,0.20554
3222.66775,0.20482
3220.73916,0.20409
3218.81057,0.20330
3216.88199,0.20249
3214.95340,0.20180
3213.02482,0.20108
3211.09623,0.20017
3209.16764,0.19929
3207.23906,0.19834
3205.31047,0.19744
3203.38188,0.19669
3201.45330,0.19603
3199.52471,0.19517
3197.59612,0.19416
3195.66754,0.19338
3193.73895,0.19255
3191.81037,0.19165
3189.88178,0.19068
3187.95319,0.18972
3186.02461,0.18890
3184.09602,0.18806
3182.16743,0.18720
3180.23885,0.18622
3178.31026,0.18528
3176.38168,0.18442
3174.45309,0.18345
3172.52450,0.18252
3170.59592,0.18159
3168.66733,0.18072
3166.73874,0.17986
3164.81016,0.17900
3162.88157,0.17797
3160.95298,0.17698
3159.02440,0.17630
3157.09581,0.17541
3155.16723,0.17451
3153.23864,0.17371
3151.31005,0.17285
3149.38147,0.17204
3147.45288,0.17121
3145.52429,0.17053
3143.59571,0.16984
3141.66712,0.16905
3139.73854,0.16831
3137.80995,0.16755
3135.88136,0.16689
3133.95278,0.16621
3132.02419,0.16560
3130.09560,0.16519
3128.16702,0.16471
3126.23843,0.16404
3124.30984,0.16327
3122.38126,0.16268
3120.45267,0.16225
3118.52409,0.16183
3116.59550,0.16135
3114.66691,0.16070
3112.73833,0.16024
3110.80974,0.16002
3108.88115,0.15960
3106.95257,0.15913
3105.02398,0.15874
3103.09540,0.15836
3101.16681,0.15796
3099.23822,0.15753
3097.30964,0.15727
3095.38105,0.15700
3093.45246,0.15658
3091.52388,0.15624
3089.59529,0.15587
3087.66670,0.15537
3085.73812,0.15495
3083.80953,0.15462
3081.88095,0.15414
3079.95236,0.15361
3078.02377,0.15319
3076.09519,0.15268
3074.16660,0.15207
3072.23801,0.15161
3070.30943,0.15115
3068.38084,0.15051
3066.45225,0.14998
3064.52367,0.14937
3062.59508,0.14856
3060.66650,0.14781
3058.73791,0.14712
3056.80932,0.14663
3054.88074,0.14607
3052.95215,0.14520
3051.02356,0.14439
3049.09498,0.14369
3047.16639,0.14302
3045.23781,0.14239
3043.30922,0.14181
3041.38063,0.14128
3039.45205,0.14069
3037.52346,0.14001
3035.59487,0.13943
3033.66629,0.13896
3031.73770,0.13854
3029.80911,0.13818
3027.88053,0.13770
3025.95194,0.13713
3024.02336,0.13674
3022.09477,0.13649
3020.16618,0.13621
3018.23760,0.13591
3016.30901,0.13583
3014.38042,0.13599
3012.45184,0.13613
3010.52325,0.13614
3008.59467,0.13621
3006.66608,0.13652
3004.73749,0.13693
3002.80891,0.13738
3000.88032,0.13787
2998.95173,0.13854
2997.02315,0.13933
2995.09456,0.14002
2993.16597,0.14087
2991.23739,0.14198
2989.30880,0.14335
2987.38022,0.14483
2985.45163,0.14648
2983.52304,0.14845
2981.59446,0.15044
2979.66587,0.15256
2977.73728,0.15485
2975.80870,0.15724
2973.88011,0.15975
2971.95153,0.16238
2970.02294,0.16542
2968.09435,0.16861
2966.16577,0.17169
2964.23718,0.17461
2962.30859,0.17743
2960.38001,0.18020
2958.45142,0.18266
2956.52283,0.18474
2954.59425,0.18655
2952.66566,0.18839
2950.73708,0.19042
2948.80849,0.19275
2946.87990,0.19570
2944.95132,0.19940
2943.02273,0.20388
2941.09414,0.20901
2939.16556,0.21463
2937.23697,0.22047
2935.30838,0.22627
2933.37980,0.23209
2931.45121,0.23775
2929.52263,0.24293
2927.59404,0.24733
2925.66545,0.25069
2923.73687,0.25272
2921.80828,0.25309
2919.87969,0.25135
2917.95111,0.24646
2916.02252,0.23804
2914.09394,0.22750
2912.16535,0.21730
2910.23676,0.20904
2908.30818,0.20263
2906.37959,0.19739
2904.45100,0.19296
2902.52242,0.18914
2900.59383,0.18568
2898.66524,0.18246
2896.73666,0.17936
2894.80807,0.17623
2892.87949,0.17315
2890.95090,0.17031
2889.02231,0.16767
2887.09373,0.16502
2885.16514,0.16275
2883.23655,0.16112
2881.30797,0.15987
2879.37938,0.15910
2877.45080,0.15867
2875.52221,0.15848
2873.59362,0.15882
2871.66504,0.15931
2869.73645,0.15977
2867.80786,0.16069
2865.87928,0.16235
2863.95069,0.16499
2862.02210,0.16914
2860.09352,0.17497
2858.16493,0.18175
2856.23635,0.18854
2854.30776,0.19391
2852.37917,0.19603
2850.45059,0.19315
2848.52200,0.18423
2846.59341,0.17139
2844.66483,0.15845
2842.73624,0.14719
2840.80766,0.13789
2838.87907,0.13051
2836.95048,0.12471
2835.02190,0.12007
2833.09331,0.11609
2831.16472,0.11278
2829.23614,0.11010
2827.30755,0.10770
2825.37896,0.10552
2823.45038,0.10360
2821.52179,0.10184
2819.59321,0.10013
2817.66462,0.09856
2815.73603,0.09722
2813.80745,0.09599
2811.87886,0.09475
2809.95027,0.09357
2808.02169,0.09251
2806.09310,0.09142
2804.16451,0.09032
2802.23593,0.08939
2800.30734,0.08853
2798.37876,0.08760
2796.45017,0.08665
2794.52158,0.08582
2792.59300,0.08503
2790.66441,0.08415
2788.73582,0.08346
2786.80724,0.08286
2784.87865,0.08208
2782.95007,0.08129
2781.02148,0.08060
2779.09289,0.08003
2777.16431,0.07950
2775.23572,0.07892
2773.30713,0.07833
2771.37855,0.07780
2769.44996,0.07742
2767.52137,0.07700
2765.59279,0.07644
2763.66420,0.07588
2761.73562,0.07541
2759.80703,0.07511
2757.87844,0.07474
2755.94986,0.07424
2754.02127,0.07380
2752.09268,0.07335
2750.16410,0.07298
2748.23551,0.07268
2746.30693,0.07234
2744.37834,0.07205
2742.44975,0.07169
2740.52117,0.07133
2738.59258,0.07098
2736.66399,0.07053
2734.73541,0.07011
2732.80682,0.06980
2730.87823,0.06945
2728.94965,0.06905
2727.02106,0.06864
2725.09248,0.06815
2723.16389,0.06764
2721.23530,0.06725
2719.30672,0.06689
2717.37813,0.06644
2715.44954,0.06596
2713.52096,0.06542
2711.59237,0.06485
2709.66379,0.06438
2707.73520,0.06407
2705.80661,0.06374
2703.87803,0.06333
2701.94944,0.06287
2700.02085,0.06241
2698.09227,0.06204
2696.16368,0.06172
2694.23509,0.06137
2692.30651,0.06108
2690.37792,0.06074
2688.44934,0.06042
2686.52075,0.06019
2684.59216,0.05991
2682.66358,0.05956
2680.73499,0.05920
2678.80640,0.05882
2676.87782,0.05847
2674.94923,0.05814
2673.02064,0.05780
2671.09206,0.05746
2669.16347,0.05702
2667.23489,0.05658
2665.30630,0.05621
2663.37771,0.05587
2661.44913,0.05551
2659.52054,0.05512
2657.59195,0.05471
2655.66337,0.05427
2653.73478,0.05397
2651.80620,0.05380
2649.87761,0.05349
2647.94902,0.05314
2646.02044,0.05280
2644.09185,0.05241
2642.16326,0.05207
2640.23468,0.05172
2638.30609,0.05134
2636.37750,0.05100
2634.44892,0.05071
2632.52033,0.05040
2630.59175,0.05003
2628.66316,0.04963
2626.73457,0.04919
2624.80599,0.04887
2622.87740,0.04870
2620.94881,0.04841
2619.02023,0.04801
2617.09164,0.04758
2615.16306,0.04711
2613.23447,0.04674
2611.30588,0.04646
2609.37730,0.04615
2607.44871,0.04583
2605.52012,0.04548
2603.59154,0.04512
2601.66295,0.04480
2599.73436,0.04451
2597.80578,0.04421
2595.87719,0.04382
2593.94861,0.04348
2592.02002,0.04317
2590.09143,0.04278
2588.16285,0.04247
2586.23426,0.04225
2584.30567,0.04197
2582.37709,0.04159
2580.44850,0.04123
2578.51991,0.04095
2576.59133,0.04062
2574.66274,0.04024
2572.73416,0.03988
2570.80557,0.03956
2568.87698,0.03925
2566.94840,0.03898
2565.01981,0.03875
2563.09122,0.03849
2561.16264,0.03828
2559.23405,0.03807
2557.30547,0.03773
2555.37688,0.03743
2553.44829,0.03725
2551.51971,0.03704
2549.59112,0.03672
2547.66253,0.03648
2545.73395,0.03631
2543.80536,0.03608
2541.87677,0.03585
2539.94819,0.03552
2538.01960,0.03519
2536.09102,0.03498
2534.16243,0.03480
2532.23384,0.03460
2530.30526,0.03432
2528.37667,0.03405
2526.44808,0.03376
2524.51950,0.03344
2522.59091,0.03319
2520.66233,0.03295
2518.73374,0.03269
2516.80515,0.03238
2514.87657,0.03205
2512.94798,0.03179
2511.01939,0.03159
2509.09081,0.03135
2507.16222,0.03096
2505.23363,0.03057
2503.30505,0.03028
2501.37646,0.03000
2499.44788,0.02966
2497.51929,0.02932
2495.59070,0.02903
2493.66212,0.02876
2491.73353,0.02850
2489.80494,0.02824
2487.87636,0.02796
2485.94777,0.02763
2484.01919,0.02731
2482.09060,0.02706
2480.16201,0.02678
2478.23343,0.02641
2476.30484,0.02608
2474.37625,0.02581
2472.44767,0.02546
2470.51908,0.02510
2468.59049,0.02482
2466.66191,0.02455
2464.73332,0.02425
2462.80474,0.02391
2460.87615,0.02364
2458.94756,0.02334
2457.01898,0.02297
2455.09039,0.02265
2453.16180,0.02232
2451.23322,0.02205
2449.30463,0.02185
2447.37604,0.02158
2445.44746,0.02129
2443.51887,0.02094
2441.59029,0.02055
2439.66170,0.02025
2437.73311,0.02005
2435.80453,0.01982
2433.87594,0.01952
2431.94735,0.01923
2430.01877,0.01893
2428.09018,0.01863
2426.16160,0.01833
2424.23301,0.01806
2422.30442,0.01779
2420.37584,0.01753
2418.44725,0.01729
2416.51866,0.01699
2414.59008,0.01664
2412.66149,0.01631
2410.73290,0.01604
2408.80432,0.01578
2406.87573,0.01550
2404.94715,0.01522
2403.01856,0.01493
2401.08997,0.01464
2399.16139,0.01442
2397.23280,0.01423
2395.30421,0.01396
2393.37563,0.01372
2391.44704,0.01352
2389.51846,0.01324
2387.58987,0.01288
2385.66128,0.01266
2383.73270,0.01256
2381.80411,0.01240
2379.87552,0.01224
2377.94694,0.01204
2376.01835,0.01184
2374.08976,0.01176
2372.16118,0.01155
2370.23259,0.01124
2368.30401,0.01099
2366.37542,0.01072
2364.44683,0.01038
2362.51825,0.00999
2360.58966,0.00964
2358.66107,0.00941
2356.73249,0.00920
2354.80390,0.00888
2352.87532,0.00849
2350.94673,0.00836
2349.01814,0.00884
2347.08956,0.00933
2345.16097,0.00915
2343.23238,0.00875
2341.30380,0.00848
2339.37521,0.00826
2337.44662,0.00805
2335.51804,0.00778
2333.58945,0.00765
2331.66087,0.00757
2329.73228,0.00727
2327.80369,0.00703
2325.87511,0.00693
2323.94652,0.00677
2322.01793,0.00656
2320.08935,0.00646
2318.16076,0.00647
2316.23217,0.00634
2314.30359,0.00615
2312.37500,0.00608
2310.44642,0.00599
2308.51783,0.00591
2306.58924,0.00580
2304.66066,0.00565
2302.73207,0.00557
2300.80348,0.00549
2298.87490,0.00542
2296.94631,0.00531
2295.01773,0.00511
2293.08914,0.00495
2291.16055,0.00479
2289.23197,0.00466
2287.30338,0.00462
2285.37479,0.00456
2283.44621,0.00439
2281.51762,0.00420
2279.58903,0.00404
2277.66045,0.00387
2275.73186,0.00373
2273.80328,0.00358
2271.87469,0.00351
2269.94610,0.00352
2268.01752,0.00341
2266.08893,0.00325
2264.16034,0.00316
2262.23176,0.00308
2260.30317,0.00298
2258.37459,0.00286
2256.44600,0.00276
2254.51741,0.00263
2252.58883,0.00253
2250.66024,0.00249
2248.73165,0.00241
2246.80307,0.00229
2244.87448,0.00221
2242.94589,0.00219
2241.01731,0.00205
2239.08872,0.00187
2237.16014,0.00177
2235.23155,0.00165
2233.30296,0.00164
2231.37438,0.00164
2229.44579,0.00150
2227.51720,0.00140
2225.58862,0.00129
2223.66003,0.00117
2221.73145,0.00113
2219.80286,0.00109
2217.87427,0.00099
2215.94569,0.00090
2214.01710,0.00079
2212.08851,0.00064
2210.15993,0.00059
2208.23134,0.00060
2206.30275,0.00054
2204.37417,0.00054
2202.44558,0.00055
2200.51700,0.00043
2198.58841,0.00029
2196.65982,0.00030
2194.73124,0.00037
2192.80265,0.00038
2190.87406,0.00035
2188.94548,0.00029
2187.01689,0.00025
2185.08830,0.00020
2183.15972,0.00019
2181.23113,0.00026
2179.30255,0.00031
2177.37396,0.00029
2175.44537,0.00026
2173.51679,0.00027
2171.58820,0.00015
2169.65961,0.00000
2167.73103,0.00007
2165.80244,0.00017
2163.87386,0.00027
2161.94527,0.00036
2160.01668,0.00027
2158.08810,0.00022
2156.15951,0.00029
2154.23092,0.00027
2152.30234,0.00022
2150.37375,0.00026
2148.44516,0.00026
2146.51658,0.00024
2144.58799,0.00030
2142.65941,0.00035
2140.73082,0.00036
2138.80223,0.00035
2136.87365,0.00032
2134.94506,0.00031
2133.01647,0.00035
2131.08789,0.00033
2129.15930,0.00022
2127.23072,0.00009
2125.30213,0.00000
2123.37354,0.00002
2121.44496,0.00007
2119.51637,0.00007
2117.58778,0.00006
2115.65920,0.00002
2113.73061,0.00002
2111.80202,0.00003
2109.87344,-0.00002
2107.94485,-0.00000
2106.01627,0.00001
2104.08768,-0.00002
2102.15909,-0.00006
2100.23051,-0.00006
2098.30192,-0.00002
2096.37333,-0.00006
2094.44475,-0.00014
2092.51616,-0.00013
2090.58758,-0.00004
2088.65899,0.00003
2086.73040,0.00007
2084.80182,0.00005
2082.87323,-0.00004
2080.94464,0.00000
2079.01606,0.00007
2077.08747,0.00005
2075.15888,0.00006
2073.23030,0.00004
2071.30171,0.00001
2069.37313,-0.00002
2067.44454,0.00003
2065.51595,0.00009
2063.58737,0.00004
2061.65878,0.00008
2059.73019,0.00015
2057.80161,0.00015
2055.87302,0.00026
2053.94443,0.00037
2052.01585,0.00037
2050.08726,0.00044
2048.15868,0.00058
2046.23009,0.00066
2044.30150,0.00076
2042.37292,0.00085
2040.44433,0.00098
2038.51574,0.00116
2036.58716,0.00134
2034.65857,0.00152
2032.72999,0.00161
2030.80140,0.00172
2028.87281,0.00189
2026.94423,0.00194
2025.01564,0.00193
2023.08705,0.00196
2021.15847,0.00205
2019.22988,0.00212
2017.30129,0.00216
2015.37271,0.00225
2013.44412,0.00237
2011.51554,0.00244
2009.58695,0.00254
2007.65836,0.00271
2005.72978,0.00288
2003.80119,0.00296
2001.87260,0.00295
1999.94402,0.00299
1998.01543,0.00304
1996.08685,0.00301
1994.15826,0.00300
1992.22967,0.00291
1990.30109,0.00281
1988.37250,0.00278
1986.44391,0.00269
1984.51533,0.00256
1982.58674,0.00248
1980.65815,0.00244
1978.72957,0.00237
1976.80098,0.00226
1974.87240,0.00220
1972.94381,0.00214
1971.01522,0.00203
1969.08664,0.00192
1967.15805,0.00174
1965.22946,0.00151
1963.30088,0.00133
1961.37229,0.00112
1959.44371,0.00102
1957.51512,0.00100
1955.58653,0.00090
1953.65795,0.00077
1951.72936,0.00067
1949.80077,0.00062
1947.87219,0.00056
1945.94360,0.00052
1944.01501,0.00056
1942.08643,0.00039
1940.15784,0.00017
1938.22926,0.00016
1936.30067,0.00011
1934.37208,0.00000
1932.44350,-0.00007
1930.51491,-0.00009
1928.58632,-0.00010
1926.65774,-0.00010
1924.72915,0.00000
1922.80056,-0.00003
1920.87198,0.00003
1918.94339,0.00022
1917.01481,0.00022
1915.08622,0.00038
1913.15763,0.00078
1911.22905,0.00109
1909.30046,0.00136
1907.37187,0.00170
1905.44329,0.00221
1903.51470,0.00271
1901.58612,0.00317
1899.65753,0.00370
1897.72894,0.00413
1895.80036,0.00450
1893.87177,0.00488
1891.94318,0.00536
1890.01460,0.00565
1888.08601,0.00576
1886.15742,0.00608
1884.22884,0.00630
1882.30025,0.00646
1880.37167,0.00662
1878.44308,0.00672
1876.51449,0.00684
1874.58591,0.00689
1872.65732,0.00703
1870.72873,0.00711
1868.80015,0.00686
1866.87156,0.00641
1864.94298,0.00616
1863.01439,0.00584
1861.08580,0.00529
1859.15722,0.00474
1857.22863,0.00406
1855.30004,0.00348
1853.37146,0.00288
1851.44287,0.00231
1849.51428,0.00181
1847.58570,0.00144
1845.65711,0.00134
1843.72853,0.00060
1841.79994,0.00000
1839.87135,-0.00009
1837.94277,-0.00029
1836.01418,-0.00047
1834.08559,-0.00061
1832.15701,-0.00041
1830.22842,-0.00038
1828.29984,-0.00056
1826.37125,-0.00029
1824.44266,-0.00018
1822.51408,0.00007
1820.58549,0.00055
1818.65690,0.00101
1816.72832,0.00153
1814.79973,0.00213
1812.87114,0.00295
1810.94256,0.00373
1809.01397,0.00456
1807.08539,0.00557
1805.15680,0.00674
1803.22821,0.00806
1801.29963,0.00942
1799.37104,0.01086
1797.44245,0.01248
1795.51387,0.01445
1793.58528,0.01650
1791.65669,0.01811
1789.72811,0.01976
1787.79952,0.02201
1785.87094,0.02425
1783.94235,0.02638
1782.01376,0.02864
1780.08518,0.03084
1778.15659,0.03298
1776.22800,0.03517
1774.29942,0.03768
1772.37083,0.03962
1770.44225,0.04114
1768.51366,0.04335
1766.58507,0.04541
1764.65649,0.04783
1762.72790,0.05045
1760.79931,0.05261
1758.87073,0.05534
1756.94214,0.05826
1755.01355,0.06138
1753.08497,0.06516
1751.15638,0.06910
1749.22780,0.07310
1747.29921,0.07744
1745.37062,0.08208
1743.44204,0.08697
1741.51345,0.09203
1739.58486,0.09660
1737.65628,0.10098
1735.72769,0.10548
1733.79911,0.10833
1731.87052,0.11047
1729.94193,0.11365
1728.01335,0.11641
1726.08476,0.11912
1724.15617,0.12185
1722.22759,0.12453
1720.29900,0.12800
1718.37041,0.13100
1716.44183,0.13313
1714.51324,0.13520
1712.58466,0.13750
1710.65607,0.13988
1708.72748,0.14223
1706.79890,0.14465
1704.87031,0.14664
1702.94172,0.14967
1701.01314,0.15302
1699.08455,0.15523
1697.15596,0.15865
1695.22738,0.16150
1693.29879,0.16396
1691.37021,0.16779
1689.44162,0.17093
1687.51303,0.17454
1685.58445,0.17829
1683.65586,0.18045
1681.72727,0.18343
1679.79869,0.18716
1677.87010,0.19106
1675.94152,0.19444
1674.01293,0.19709
1672.08434,0.20028
1670.15576,0.20303
1668.22717,0.20494
1666.29858,0.20705
1664.37000,0.20931
1662.44141,0.21061
1660.51282,0.21150
1658.58424,0.21250
1656.65565,0.21351
1654.72707,0.21464
1652.79848,0.21254
1650.86989,0.21037
1648.94131,0.21103
1647.01272,0.21038
1645.08413,0.20870
1643.15555,0.20799
1641.22696,0.20778
1639.29838,0.20761
1637.36979,0.20775
1635.44120,0.20678
1633.51262,0.20529
1631.58403,0.20495
1629.65544,0.20388
1627.72686,0.20216
1625.79827,0.20009
1623.86968,0.19747
1621.94110,0.19431
1620.01251,0.19175
1618.08393,0.18971
1616.15534,0.18597
1614.22675,0.18289
1612.29817,0.18070
1610.36958,0.17803
1608.44099,0.17547
1606.51241,0.17336
1604.58382,0.17167
1602.65524,0.16967
1600.72665,0.16768
1598.79806,0.16562
1596.86948,0.16367
1594.94089,0.16181
1593.01230,0.15988
1591.08372,0.15802
1589.15513,0.15587
1587.22654,0.15398
1585.29796,0.15203
1583.36937,0.15011
1581.44079,0.14818
1579.51220,0.14682
1577.58361,0.14596
1575.65503,0.14385
1573.72644,0.14255
1571.79785,0.14264
1569.86927,0.14220
1567.94068,0.14162
1566.01209,0.14185
1564.08351,0.14229
1562.15492,0.14348
1560.22634,0.14483
1558.29775,0.14389
1556.36916,0.14388
1554.44058,0.14498
1552.51199,0.14556
1550.58340,0.14643
1548.65482,0.14673
1546.72623,0.14721
1544.79765,0.14752
1542.86906,0.14753
1540.94047,0.14755
1539.01189,0.14579
1537.08330,0.14492
1535.15471,0.14488
1533.22613,0.14376
1531.29754,0.14255
1529.36895,0.14176
1527.44037,0.14069
1525.51178,0.13925
1523.58320,0.13878
1521.65461,0.13813
1519.72602,0.13711
1517.79744,0.13674
1515.86885,0.13534
1513.94026,0.13304
1512.01168,0.13016
1510.08309,0.12737
1508.15451,0.12498
1506.22592,0.12032
1504.29733,0.11538
1502.36875,0.11223
1500.44016,0.10894
1498.51157,0.10544
1496.58299,0.10154
1494.65440,0.09756
1492.72581,0.09495
1490.79723,0.09258
1488.86864,0.09008
1486.94006,0.08830
1485.01147,0.08712
1483.08288,0.08678
1481.15430,0.08716
1479.22571,0.08844
1477.29712,0.09083
1475.36854,0.09434
1473.43995,0.09933
1471.51137,0.10530
1469.58278,0.11173
1467.65419,0.11732
1465.72561,0.12030
1463.79702,0.12133
1461.86843,0.12195
1459.93985,0.12313
1458.01126,0.12426
1456.08267,0.12392
1454.15409,0.12367
1452.22550,0.12364
1450.29692,0.12325
1448.36833,0.12292
1446.43974,0.12237
1444.51116,0.12202
1442.58257,0.12171
1440.65398,0.12150
1438.72540,0.12171
1436.79681,0.12118
1434.86822,0.12034
1432.93964,0.12023
1431.01105,0.12005
1429.08247,0.11955
1427.15388,0.11944
1425.22529,0.11962
1423.29671,0.11974
1421.36812,0.12024
1419.43953,0.12032
1417.51095,0.11988
1415.58236,0.12007
1413.65378,0.12004
1411.72519,0.11970
1409.79660,0.11915
1407.86802,0.11852
1405.93943,0.11814
1404.01084,0.11735
1402.08226,0.11659
1400.15367,0.11577
1398.22508,0.11477
1396.29650,0.11413
1394.36791,0.11341
1392.43933,0.11298
1390.51074,0.11319
1388.58215,0.11340
1386.65357,0.11315
1384.72498,0.11320
1382.79639,0.11399
1380.86781,0.11490
1378.93922,0.11545
1377.01064,0.11523
1375.08205,0.11432
1373.15346,0.11312
1371.22488,0.11193
1369.29629,0.11065
1367.36770,0.10899
1365.43912,0.10747
1363.51053,0.10603
1361.58194,0.10446
1359.65336,0.10307
1357.72477,0.10201
1355.79619,0.10126
1353.86760,0.10053
1351.93901,0.09981
1350.01043,0.09908
1348.08184,0.09829
1346.15325,0.09753
1344.22467,0.09694
1342.29608,0.09659
1340.36750,0.09614
1338.43891,0.09553
1336.51032,0.09494
1334.58174,0.09439
1332.65315,0.09389
1330.72456,0.09360
1328.79598,0.09333
1326.86739,0.09295
1324.93880,0.09266
1323.01022,0.09237
1321.08163,0.09209
1319.15305,0.09182
1317.22446,0.09153
1315.29587,0.09127
1313.36729,0.09111
1311.43870,0.09090
1309.51011,0.09052
1307.58153,0.09022
1305.65294,0.08993
1303.72435,0.08974
1301.79577,0.08972
1299.86718,0.08963
1297.93860,0.08966
1296.01001,0.08992
1294.08142,0.09038
1292.15284,0.09104
1290.22425,0.09189
1288.29566,0.09296
1286.36708,0.09426
1284.43849,0.09580
1282.50991,0.09742
1280.58132,0.09926
1278.65273,0.10115
1276.72415,0.10296
1274.79556,0.10498
1272.86697,0.10718
1270.93839,0.10946
1269.00980,0.11186
1267.08121,0.11438
1265.15263,0.11712
1263.22404,0.12034
1261.29546,0.12406
1259.36687,0.12823
1257.43828,0.13307
1255.50970,0.13855
1253.58111,0.14464
1251.65252,0.15103
1249.72394,0.15729
1247.79535,0.16336
1245.86677,0.16935
1243.93818,0.17509
1242.00959,0.18020
1240.08101,0.18493
1238.15242,0.18939
1236.22383,0.19339
1234.29525,0.19708
1232.36666,0.20042
1230.43807,0.20353
1228.50949,0.20635
1226.58090,0.20880
1224.65232,0.21122
1222.72373,0.21358
1220.79514,0.21565
1218.86656,0.21770
1216.93797,0.21989
1215.00938,0.22168
1213.08080,0.22314
1211.15221,0.22475
1209.22363,0.22649
1207.29504,0.22825
1205.36645,0.22972
1203.43787,0.23120
1201.50928,0.23287
1199.58069,0.23427
1197.65211,0.23560
1195.72352,0.23693
1193.79493,0.23812
1191.86635,0.23943
1189.93776,0.24090
1188.00918,0.24220
1186.08059,0.24350
1184.15200,0.24507
1182.22342,0.24653
1180.29483,0.24802
1178.36624,0.25028
1176.43766,0.25291
1174.50907,0.25532
1172.58048,0.25769
1170.65190,0.26017
1168.72331,0.26275
1166.79473,0.26523
1164.86614,0.26753
1162.93755,0.26969
1161.00897,0.27137
1159.08038,0.27251
1157.15179,0.27352
1155.22321,0.27450
1153.29462,0.27540
1151.36604,0.27675
1149.43745,0.27857
1147.50886,0.28017
1145.58028,0.28168
1143.65169,0.28372
1141.72310,0.28626
1139.79452,0.28898
1137.86593,0.29162
1135.93734,0.29443
1134.00876,0.29780
1132.08017,0.30115
1130.15159,0.30427
1128.22300,0.30807
1126.29441,0.31263
1124.36583,0.31732
1122.43724,0.32210
1120.50865,0.32691
1118.58007,0.33187
1116.65148,0.33720
1114.72290,0.34278
1112.79431,0.34872
1110.86572,0.35469
1108.93714,0.36017
1107.00855,0.36520
1105.07996,0.36964
1103.15138,0.37341
1101.22279,0.37642
1099.29420,0.37821
1097.36562,0.37904
1095.43703,0.37951
1093.50845,0.37929
1091.57986,0.37847
1089.65127,0.37749
1087.72269,0.37597
1085.79410,0.37403
1083.86551,0.37190
1081.93693,0.36987
1080.00834,0.36771
1078.07976,0.36484
1076.15117,0.36208
1074.22258,0.35964
1072.29400,0.35694
1070.36541,0.35415
1068.43682,0.35150
1066.50824,0.34881
1064.57965,0.34624
1062.65106,0.34367
1060.72248,0.34050
1058.79389,0.33710
1056.86531,0.33343
1054.93672,0.32959
1053.00813,0.32586
1051.07955,0.32226
1049.15096,0.31947
1047.22237,0.31720
1045.29379,0.31539
1043.36520,0.31382
1041.43661,0.31214
1039.50803,0.31114
1037.57944,0.31011
1035.65086,0.30862
1033.72227,0.30691
1031.79368,0.30435
1029.86510,0.30111
1027.93651,0.29756
1026.00792,0.29375
1024.07934,0.28958
1022.15075,0.28532
1020.22217,0.28146
1018.29358,0.27753
1016.36499,0.27363
1014.43641,0.26989
1012.50782,0.26615
1010.57923,0.26263
1008.65065,0.25900
1006.72206,0.25522
1004.79347,0.25127
1002.86489,0.24668
1000.93630,0.24179
999.00772,0.23700
997.07913,0.23213
995.15054,0.22695
993.22196,0.22172
991.29337,0.21662
989.36478,0.21152
987.43620,0.20618
985.50761,0.20026
983.57903,0.19403
981.65044,0.18773
979.72185,0.18104
977.79327,0.17392
975.86468,0.16689
973.93609,0.16009
972.00751,0.15335
970.07892,0.14680
968.15033,0.14043
966.22175,0.13440
964.29316,0.12906
962.36458,0.12453
960.43599,0.12038
958.50740,0.11627
956.57882,0.11275
954.65023,0.10984
952.72164,0.10719
950.79306,0.10468
948.86447,0.10238
946.93589,0.10065
945.00730,0.09912
943.07871,0.09764
941.15013,0.09623
939.22154,0.09477
937.29295,0.09349
935.36437,0.09219
933.43578,0.09098
931.50719,0.08977
929.57861,0.08831
927.65002,0.08697
925.72144,0.08606
923.79285,0.08526
921.86426,0.08437
919.93568,0.08358
918.00709,0.08286
916.07850,0.08227
914.14992,0.08138
912.22133,0.07975
910.29274,0.07742
908.36416,0.07421
906.43557,0.07019
904.50699,0.06538
902.57840,0.06063
900.64981,0.05664
898.72123,0.05284
896.79264,0.04890
894.86405,0.04488
892.93547,0.04143
891.00688,0.03852
889.07830,0.03571
887.14971,0.03305
885.22112,0.03026
883.29254,0.02758
881.36395,0.02523
879.43536,0.02285
877.50678,0.02021
875.57819,0.01760
873.64960,0.01511
871.72102,0.01252
869.79243,0.01023
867.86385,0.00832
865.93526,0.00646
864.00667,0.00475
862.07809,0.00327
860.14950,0.00174
858.22091,0.00046
856.29233,0.00000
854.36374,-0.00011
852.43516,0.00003
850.50657,0.00049
848.57798,0.00140
846.64940,0.00281
844.72081,0.00449
842.79222,0.00676
840.86364,0.00948
838.93505,0.01261
837.00646,0.01618
835.07788,0.01961
833.14929,0.02253
831.22071,0.02506
829.29212,0.02737
827.36353,0.02907
825.43495,0.03055
823.50636,0.03180
821.57777,0.03290
819.64919,0.03437
817.72060,0.03569
815.79201,0.03745
813.86343,0.03968
811.93484,0.04233
810.00626,0.04567
808.07767,0.04880
806.14908,0.05255
804.22050,0.05698
802.29191,0.06062
800.36332,0.06268
798.43474,0.06216
796.50615,0.05945
794.57757,0.05563
792.64898,0.05151
790.72039,0.04844
788.79181,0.04654
786.86322,0.04480
784.93463,0.04371
783.00605,0.04344
781.07746,0.04248
779.14887,0.04037
777.22029,0.03720
775.29170,0.03263
773.36312,0.02773
771.43453,0.02393
769.50594,0.02094
767.57736,0.01867
765.64877,0.01728
763.72018,0.01643
761.79160,0.01615
759.86301,0.01634
757.93443,0.01702
756.00584,0.01730
754.07725,0.01669
752.14867,0.01570
750.22008,0.01447
748.29149,0.01347
746.36291,0.01247
744.43432,0.01148
742.50573,0.01001
740.57715,0.00787
738.64856,0.00649
736.71998,0.00561
734.79139,0.00516
732.86280,0.00499
730.93422,0.00476
729.00563,0.00484
727.07704,0.00495
725.14846,0.00534
723.21987,0.00590
721.29129,0.00641
719.36270,0.00647
717.43411,0.00570
715.50553,0.00489
713.57694,0.00433
711.64835,0.00399
709.71977,0.00399
707.79118,0.00457
705.86259,0.00568
703.93401,0.00731
702.00542,0.00903
700.07684,0.01160
698.14825,0.01561
696.21966,0.01828
694.29108,0.01824
692.36249,0.01601
690.43390,0.01283
688.50532,0.01026
686.57673,0.00845
684.64814,0.00782
682.71956,0.00725
680.79097,0.00697
678.86239,0.00751
676.93380,0.00732
675.00521,0.00627
673.07663,0.00504
671.14804,0.00513
669.21945,0.00569
667.29087,0.00507
665.36228,0.00451
663.43370,0.00433
661.50511,0.00458
659.57652,0.00497
657.64794,0.00526
655.71935,0.00540
653.79076,0.00565
651.86218,0.00643
649.93359,0.00691
648.00500,0.00729
646.07642,0.00755
644.14783,0.00733
642.21925,0.00802
640.29066,0.01017
638.36207,0.01186
636.43349,0.01181
634.50490,0.01121
632.57631,0.01167
630.64773,0.01347
628.71914,0.01477
626.79056,0.01523
624.86197,0.01669
622.93338,0.01821
621.00480,0.01774
619.07621,0.01728
617.14762,0.01807
615.21904,0.01797
613.29045,0.01843
611.36186,0.02046
609.43328,0.02217
607.50469,0.02327
605.57611,0.02403
603.64752,0.02457
601.71893,0.02537
599.79035,0.02731
597.86176,0.02888
595.93317,0.02992
594.00459,0.03212
592.07600,0.03426
590.14742,0.03671
588.21883,0.03872
586.29024,0.04119
584.36166,0.04553
582.43307,0.04845
580.50448,0.05141
578.57590,0.05451
576.64731,0.05625
574.71872,0.05848
572.79014,0.06085
570.86155,0.06402
568.93297,0.06836
567.00438,0.07341
565.07579,0.07744
563.14721,0.07963
561.21862,0.08231
559.29003,0.08471
557.36145,0.08734
555.43286,0.09105
553.50427,0.09445
551.57569,0.09685
549.64710,0.09783
547.71852,0.10054
545.78993,0.10525
543.86134,0.10800
541.93276,0.11007
540.00417,0.11407
538.07558,0.11863
536.14700,0.12159
534.21841,0.12313
532.28983,0.12460
530.36124,0.12649
528.43265,0.12773
526.50407,0.12672
524.57548,0.12365
522.64689,0.12057
520.71831,0.11932
518.78972,0.11887
516.86113,0.11647
514.93255,0.11205
513.00396,0.10820
511.07538,0.10627
509.14679,0.10435
507.21820,0.10363
505.28962,0.10578
503.36103,0.10706
501.43244,0.10892
499.50386,0.11294
497.57527,0.11775
495.64669,0.12484
493.71810,0.13293
491.78951,0.14288
489.86093,0.15314
487.93234,0.16206
486.00375,0.17352
484.07517,0.18510
482.14658,0.19479
480.21799,0.20179
478.28941,0.20785
476.36082,0.21465
474.43224,0.21812
472.50365,0.21944
470.57506,0.21755
468.64648,0.21261
466.71789,0.20625
464.78930,0.19930
462.86072,0.19497
460.93213,0.18992
459.00355,0.17890
457.07496,0.16274
455.14637,0.15066
453.21779,0.14521
451.28920,0.13933
449.36061,0.13131
447.43203,0.12291
445.50344,0.11772
443.57485,0.11538
441.64627,0.10808
439.71768,0.10067
437.78910,0.09799
435.86051,0.09556
433.93192,0.09258
432.00334,0.08334
430.07475,0.07401
428.14616,0.07273
426.21758,0.07397
424.28899,0.07237
422.36040,0.06477
420.43182,0.05774
418.50323,0.04872
416.57465,0.04154
414.64606,0.04080
412.71747,0.03560
410.78889,0.02868
408.86030,0.01806
406.93171,0.00705
405.00313,0.00439
403.07454,0.00228
401.14596,0.00000
399.21737,0.00000
