3747.24323,0.00030
3745.31464,0.00230
3743.38605,0.00006
3741.45747,0.00000
3739.52888,0.00258
3737.60030,0.00368
3735.67171,0.00360
3733.74312,0.00339
3731.81454,0.00379
3729.88595,0.00417
3727.95736,0.00550
3726.02878,0.00657
3724.10019,0.00711
3722.17161,0.00859
3720.24302,0.00962
3718.31443,0.01143
3716.38585,0.01370
3714.45726,0.01662
3712.52867,0.01945
3710.60009,0.02079
3708.67150,0.02374
3706.74291,0.02724
3704.81433,0.03097
3702.88574,0.03426
3700.95716,0.03611
3699.02857,0.03822
3697.09998,0.03976
3695.17140,0.04098
3693.24281,0.04169
3691.31422,0.04308
3689.38564,0.04418
3687.45705,0.04381
3685.52846,0.04571
3683.59988,0.04915
3681.67129,0.05268
3679.74271,0.05597
3677.81412,0.06029
3675.88553,0.06391
3673.95695,0.06608
3672.02836,0.07113
3670.09977,0.07506
3668.17119,0.07772
3666.24260,0.08226
3664.31402,0.08656
3662.38543,0.09089
3660.45684,0.09471
3658.52826,0.09877
3656.59967,0.10215
3654.67108,0.10442
3652.74250,0.10871
3650.81391,0.11251
3648.88532,0.11412
3646.95674,0.11579
3645.02815,0.11869
3643.09957,0.12187
3641.17098,0.12459
3639.24239,0.12729
3637.31381,0.12970
3635.38522,0.13250
3633.45663,0.13527
3631.52805,0.13852
3629.59946,0.14114
3627.67088,0.14113
3625.74229,0.14257
3623.81370,0.14455
3621.88512,0.14569
3619.95653,0.14610
3618.02794,0.14440
3616.09936,0.14351
3614.17077,0.14326
3612.24218,0.14249
3610.31360,0.14207
3608.38501,0.14109
3606.45643,0.14028
3604.52784,0.14038
3602.59925,0.14044
3600.67067,0.14022
3598.74208,0.14034
3596.81349,0.14054
3594.88491,0.14031
3592.95632,0.14015
3591.02774,0.14079
3589.09915,0.14152
3587.17056,0.14138
3585.24198,0.14162
3583.31339,0.14253
3581.38480,0.14346
3579.45622,0.14443
3577.52763,0.14518
3575.59904,0.14609
3573.67046,0.14711
3571.74187,0.14821
3569.81329,0.14971
3567.88470,0.15075
3565.95611,0.15135
3564.02753,0.15246
3562.09894,0.15387
3560.17035,0.15513
3558.24177,0.15643
3556.31318,0.15772
3554.38459,0.15892
3552.45601,0.15990
3550.52742,0.16097
3548.59884,0.16263
3546.67025,0.16387
3544.74166,0.16469
3542.81308,0.16597
3540.88449,0.16744
3538.95590,0.16892
3537.02732,0.17010
3535.09873,0.17113
3533.17015,0.17240
3531.24156,0.17368
3529.31297,0.17487
3527.38439,0.17611
3525.45580,0.17740
3523.52721,0.17851
3521.59863,0.17950
3519.67004,0.18062
3517.74145,0.18177
3515.81287,0.18287
3513.88428,0.18415
3511.95570,0.18536
3510.02711,0.18626
3508.09852,0.18727
3506.16994,0.18853
3504.24135,0.18983
3502.31276,0.19085
3500.38418,0.19192
3498.45559,0.19318
3496.52701,0.19421
3494.59842,0.19519
3492.66983,0.19627
3490.74125,0.19740
3488.81266,0.19835
3486.88407,0.19925
3484.95549,0.20021
3483.02690,0.20121
3481.09831,0.20233
3479.16973,0.20321
3477.24114,0.20398
3475.31256,0.20483
3473.38397,0.20565
3471.45538,0.20642
3469.52680,0.20719
3467.59821,0.20814
3465.66962,0.20904
3463.74104,0.20974
3461.81245,0.21048
3459.88386,0.21141
3457.95528,0.21228
3456.02669,0.21300
3454.09811,0.21375
3452.16952,0.21432
3450.24093,0.21495
3448.31235,0.21576
3446.38376,0.21643
3444.45517,0.21717
3442.52659,0.21794
3440.59800,0.21848
3438.66942,0.21908
3436.74083,0.21994
3434.81224,0.22055
3432.88366,0.22105
3430.95507,0.22158
3429.02648,0.22193
3427.09790,0.22256
3425.16931,0.22337
3423.24072,0.22397
3421.31214,0.22436
3419.38355,0.22458
3417.45497,0.22509
3415.52638,0.22570
3413.59779,0.22595
3411.66921,0.22625
3409.74062,0.22653
3407.81203,0.22676
3405.88345,0.22732
3403.95486,0.22774
3402.02628,0.22803
3400.09769,0.22845
3398.16910,0.22865
3396.24052,0.22877
3394.31193,0.22915
3392.38334,0.22959
3390.45476,0.22979
3388.52617,0.22988
3386.59758,0.23000
3384.66900,0.23021
3382.74041,0.23053
3380.81183,0.23082
3378.88324,0.23110
3376.95465,0.23126
3375.02607,0.23142
3373.09748,0.23167
3371.16889,0.23189
3369.24031,0.23208
3367.31172,0.23222
3365.38314,0.23248
3363.45455,0.23269
3361.52596,0.23279
3359.59738,0.23297
3357.66879,0.23318
3355.74020,0.23338
3353.81162,0.23352
3351.88303,0.23362
3349.95444,0.23362
3348.02586,0.23374
3346.09727,0.23413
3344.16869,0.23421
3342.24010,0.23405
3340.31151,0.23407
3338.38293,0.23422
3336.45434,0.23436
3334.52575,0.23422
3332.59717,0.23404
3330.66858,0.23407
3328.73999,0.23413
3326.81141,0.23428
3324.88282,0.23437
3322.95424,0.23435
3321.02565,0.23418
3319.09706,0.23396
3317.16848,0.23392
3315.23989,0.23377
3313.31130,0.23357
3311.38272,0.23358
3309.45413,0.23372
3307.52555,0.23368
3305.59696,0.23339
3303.66837,0.23313
3301.73979,0.23289
3299.81120,0.23279
3297.88261,0.23256
3295.95403,0.23225
3294.02544,0.23207
3292.09685,0.23175
3290.16827,0.23142
3288.23968,0.23096
3286.31110,0.23050
3284.38251,0.23018
3282.45392,0.22967
3280.52534,0.22902
3278.59675,0.22847
3276.66816,0.22809
3274.73958,0.22738
3272.81099,0.22636
3270.88241,0.22550
3268.95382,0.22481
3267.02523,0.22418
3265.09665,0.22340
3263.16806,0.22244
3261.23947,0.22139
3259.31089,0.22024
3257.38230,0.21910
3255.45371,0.21810
3253.52513,0.21719
3251.59654,0.21626
3249.66796,0.21536
3247.73937,0.21437
3245.81078,0.21331
3243.88220,0.21226
3241.95361,0.21130
3240.02502,0.21048
3238.09644,0.20961
3236.16785,0.20877
3234.23927,0.20790
3232.31068,0.20708
3230.38209,0.20629
3228.45351,0.20532
3226.52492,0.20453
3224.59633,0.20381
3222.66775,0.20291
3220.73916,0.20213
3218.81057,0.20140
3216.88199,0.20052
3214.95340,0.19968
3213.02482,0.19901
3211.09623,0.19825
3209.16764,0.19723
3207.23906,0.19628
3205.31047,0.19546
3203.38188,0.19462
3201.45330,0.19393
3199.52471,0.19328
3197.59612,0.19235
3195.66754,0.19126
3193.73895,0.19025
3191.81037,0.18931
3189.88178,0.18848
3187.95319,0.18760
3186.02461,0.18666
3184.09602,0.18580
3182.16743,0.18473
3180.23885,0.18372
3178.31026,0.18299
3176.38168,0.18201
3174.45309,0.18084
3172.52450,0.17978
3170.59592,0.17898
3168.66733,0.17822
3166.73874,0.17730
3164.81016,0.17641
3162.88157,0.17552
3160.95298,0.17461
3159.02440,0.17364
3157.09581,0.17269
3155.16723,0.17189
3153.23864,0.17112
3151.31005,0.17040
3149.38147,0.16964
3147.45288,0.16878
3145.52429,0.16791
3143.59571,0.16723
3141.66712,0.16668
3139.73854,0.16603
3137.80995,0.16529
3135.88136,0.16451
3133.95278,0.16382
3132.02419,0.16336
3130.09560,0.16279
3128.16702,0.16197
3126.23843,0.16129
3124.30984,0.16084
3122.38126,0.16034
3120.45267,0.15991
3118.52409,0.15949
3116.59550,0.15902
3114.66691,0.15857
3112.73833,0.15815
3110.80974,0.15765
3108.88115,0.15710
3106.95257,0.15675
3105.02398,0.15650
3103.09540,0.15613
3101.16681,0.15576
3099.23822,0.15538
3097.30964,0.15499
3095.38105,0.15458
3093.45246,0.15419
3091.52388,0.15384
3089.59529,0.15355
3087.66670,0.15336
3085.73812,0.15299
3083.80953,0.15238
3081.88095,0.15194
3079.95236,0.15165
3078.02377,0.15119
3076.09519,0.15065
3074.16660,0.15016
3072.23801,0.14965
3070.30943,0.14912
3068.38084,0.14850
3066.45225,0.14785
3064.52367,0.14712
3062.59508,0.14640
3060.66650,0.14592
3058.73791,0.14537
3056.80932,0.14461
3054.88074,0.14380
3052.95215,0.14304
3051.02356,0.14244
3049.09498,0.14171
3047.16639,0.14092
3045.23781,0.14026
3043.30922,0.13969
3041.38063,0.13928
3039.45205,0.13877
3037.52346,0.13803
3035.59487,0.13746
3033.66629,0.13702
3031.73770,0.13643
3029.80911,0.13591
3027.88053,0.13562
3025.95194,0.13526
3024.02336,0.13481
3022.09477,0.13449
3020.16618,0.13421
3018.23760,0.13395
3016.30901,0.13378
3014.38042,0.13373
3012.45184,0.13378
3010.52325,0.13389
3008.59467,0.13409
3006.66608,0.13435
3004.73749,0.13466
3002.80891,0.13511
3000.88032,0.13569
2998.95173,0.13630
2997.02315,0.13697
2995.09456,0.13767
2993.16597,0.13849
2991.23739,0.13955
2989.30880,0.14081
2987.38022,0.14239
2985.45163,0.14409
2983.52304,0.14577
2981.59446,0.14775
2979.66587,0.14991
2977.73728,0.15212
2975.80870,0.15447
2973.88011,0.15702
2971.95153,0.15976
2970.02294,0.16261
2968.09435,0.16569
2966.16577,0.16881
2964.23718,0.17178
2962.30859,0.17457
2960.38001,0.17720
2958.45142,0.17978
2956.52283,0.18199
2954.59425,0.18383
2952.66566,0.18555
2950.73708,0.18748
2948.80849,0.18993
2946.87990,0.19301
2944.95132,0.19689
2943.02273,0.20145
2941.09414,0.20675
2939.16556,0.21265
2937.23697,0.21869
2935.30838,0.22482
2933.37980,0.23075
2931.45121,0.23652
2929.52263,0.24227
2927.59404,0.24735
2925.66545,0.25110
2923.73687,0.25347
2921.80828,0.25428
2919.87969,0.25269
2917.95111,0.24787
2916.02252,0.23933
2914.09394,0.22818
2912.16535,0.21722
2910.23676,0.20823
2908.30818,0.20134
2906.37959,0.19588
2904.45100,0.19139
2902.52242,0.18751
2900.59383,0.18397
2898.66524,0.18068
2896.73666,0.17749
2894.80807,0.17436
2892.87949,0.17128
2890.95090,0.16837
2889.02231,0.16567
2887.09373,0.16314
2885.16514,0.16101
2883.23655,0.15920
2881.30797,0.15786
2879.37938,0.15711
2877.45080,0.15664
2875.52221,0.15648
2873.59362,0.15676
2871.66504,0.15729
2869.73645,0.15782
2867.80786,0.15862
2865.87928,0.16023
2863.95069,0.16310
2862.02210,0.16746
2860.09352,0.17341
2858.16493,0.18068
2856.23635,0.18800
2854.30776,0.19382
2852.37917,0.19658
2850.45059,0.19412
2848.52200,0.18513
2846.59341,0.17172
2844.66483,0.15803
2842.73624,0.14624
2840.80766,0.13664
2838.87907,0.12909
2836.95048,0.12320
2835.02190,0.11849
2833.09331,0.11455
2831.16472,0.11131
2829.23614,0.10858
2827.30755,0.10617
2825.37896,0.10405
2823.45038,0.10210
2821.52179,0.10029
2819.59321,0.09855
2817.66462,0.09696
2815.73603,0.09558
2813.80745,0.09435
2811.87886,0.09328
2809.95027,0.09214
2808.02169,0.09088
2806.09310,0.08966
2804.16451,0.08865
2802.23593,0.08776
2800.30734,0.08685
2798.37876,0.08600
2796.45017,0.08523
2794.52158,0.08438
2792.59300,0.08350
2790.66441,0.08271
2788.73582,0.08201
2786.80724,0.08136
2784.87865,0.08065
2782.95007,0.07991
2781.02148,0.07924
2779.09289,0.07862
2777.16431,0.07810
2775.23572,0.07754
2773.30713,0.07688
2771.37855,0.07632
2769.44996,0.07582
2767.52137,0.07527
2765.59279,0.07475
2763.66420,0.07440
2761.73562,0.07402
2759.80703,0.07350
2757.87844,0.07302
2755.94986,0.07267
2754.02127,0.07232
2752.09268,0.07191
2750.16410,0.07154
2748.23551,0.07116
2746.30693,0.07081
2744.37834,0.07049
2742.44975,0.07014
2740.52117,0.06978
2738.59258,0.06937
2736.66399,0.06902
2734.73541,0.06871
2732.80682,0.06836
2730.87823,0.06796
2728.94965,0.06753
2727.02106,0.06713
2725.09248,0.06667
2723.16389,0.06633
2721.23530,0.06593
2719.30672,0.06539
2717.37813,0.06501
2715.44954,0.06458
2713.52096,0.06405
2711.59237,0.06359
2709.66379,0.06321
2707.73520,0.06284
2705.80661,0.06245
2703.87803,0.06211
2701.94944,0.06163
2700.02085,0.06112
2698.09227,0.06081
2696.16368,0.06050
2694.23509,0.06012
2692.30651,0.05986
2690.37792,0.05965
2688.44934,0.05931
2686.52075,0.05894
2684.59216,0.05867
2682.66358,0.05847
2680.73499,0.05820
2678.80640,0.05783
2676.87782,0.05746
2674.94923,0.05708
2673.02064,0.05678
2671.09206,0.05647
2669.16347,0.05599
2667.23489,0.05554
2665.30630,0.05518
2663.37771,0.05480
2661.44913,0.05436
2659.52054,0.05406
2657.59195,0.05389
2655.66337,0.05360
2653.73478,0.05320
2651.80620,0.05278
2649.87761,0.05247
2647.94902,0.05225
2646.02044,0.05199
2644.09185,0.05165
2642.16326,0.05127
2640.23468,0.05102
2638.30609,0.05080
2636.37750,0.05048
2634.44892,0.05009
2632.52033,0.04968
2630.59175,0.04934
2628.66316,0.04908
2626.73457,0.04875
2624.80599,0.04839
2622.87740,0.04802
2620.94881,0.04766
2619.02023,0.04734
2617.09164,0.04694
2615.16306,0.04656
2613.23447,0.04625
2611.30588,0.04585
2609.37730,0.04549
2607.44871,0.04518
2605.52012,0.04490
2603.59154,0.04462
2601.66295,0.04425
2599.73436,0.04389
2597.80578,0.04352
2595.87719,0.04311
2593.94861,0.04272
2592.02002,0.04238
2590.09143,0.04217
2588.16285,0.04197
2586.23426,0.04160
2584.30567,0.04114
2582.37709,0.04083
2580.44850,0.04061
2578.51991,0.04030
2576.59133,0.03999
2574.66274,0.03969
2572.73416,0.03939
2570.80557,0.03910
2568.87698,0.03880
2566.94840,0.03855
2565.01981,0.03828
2563.09122,0.03796
2561.16264,0.03762
2559.23405,0.03734
2557.30547,0.03713
2555.37688,0.03691
2553.44829,0.03665
2551.51971,0.03637
2549.59112,0.03609
2547.66253,0.03583
2545.73395,0.03557
2543.80536,0.03531
2541.87677,0.03512
2539.94819,0.03489
2538.01960,0.03459
2536.09102,0.03436
2534.16243,0.03411
2532.23384,0.03385
2530.30526,0.03365
2528.37667,0.03342
2526.44808,0.03312
2524.51950,0.03284
2522.59091,0.03259
2520.66233,0.03231
2518.73374,0.03205
2516.80515,0.03184
2514.87657,0.03157
2512.94798,0.03125
2511.01939,0.03092
2509.09081,0.03059
2507.16222,0.03033
2505.23363,0.03010
2503.30505,0.02985
2501.37646,0.02952
2499.44788,0.02917
2497.51929,0.02891
2495.59070,0.02866
2493.66212,0.02843
2491.73353,0.02819
2489.80494,0.02783
2487.87636,0.02740
2485.94777,0.02706
2484.01919,0.02676
2482.09060,0.02651
2480.16201,0.02628
2478.23343,0.02596
2476.30484,0.02572
2474.37625,0.02551
2472.44767,0.02516
2470.51908,0.02487
2468.59049,0.02460
2466.66191,0.02427
2464.73332,0.02398
2462.80474,0.02374
2460.87615,0.02342
2458.94756,0.02295
2457.01898,0.02264
2455.09039,0.02247
2453.16180,0.02219
2451.23322,0.02181
2449.30463,0.02156
2447.37604,0.02141
2445.44746,0.02110
2443.51887,0.02076
2441.59029,0.02045
2439.66170,0.02008
2437.73311,0.01978
2435.80453,0.01952
2433.87594,0.01932
2431.94735,0.01906
2430.01877,0.01873
2428.09018,0.01847
2426.16160,0.01822
2424.23301,0.01797
2422.30442,0.01768
2420.37584,0.01734
2418.44725,0.01705
2416.51866,0.01685
2414.59008,0.01663
2412.66149,0.01634
2410.73290,0.01607
2408.80432,0.01581
2406.87573,0.01548
2404.94715,0.01521
2403.01856,0.01503
2401.08997,0.01479
2399.16139,0.01452
2397.23280,0.01428
2395.30421,0.01404
2393.37563,0.01383
2391.44704,0.01363
2389.51846,0.01336
2387.58987,0.01312
2385.66128,0.01295
2383.73270,0.01276
2381.80411,0.01252
2379.87552,0.01228
2377.94694,0.01206
2376.01835,0.01186
2374.08976,0.01163
2372.16118,0.01130
2370.23259,0.01089
2368.30401,0.01047
2366.37542,0.01009
2364.44683,0.00971
2362.51825,0.00936
2360.58966,0.00899
2358.66107,0.00859
2356.73249,0.00831
2354.80390,0.00818
2352.87532,0.00803
2350.94673,0.00814
2349.01814,0.00880
2347.08956,0.00915
2345.16097,0.00879
2343.23238,0.00836
2341.30380,0.00800
2339.37521,0.00783
2337.44662,0.00767
2335.51804,0.00739
2333.58945,0.00727
2331.66087,0.00711
2329.73228,0.00682
2327.80369,0.00661
2325.87511,0.00649
2323.94652,0.00638
2322.01793,0.00631
2320.08935,0.00627
2318.16076,0.00616
2316.23217,0.00608
2314.30359,0.00598
2312.37500,0.00589
2310.44642,0.00584
2308.51783,0.00579
2306.58924,0.00566
2304.66066,0.00551
2302.73207,0.00545
2300.80348,0.00530
2298.87490,0.00509
2296.94631,0.00498
2295.01773,0.00484
2293.08914,0.00471
2291.16055,0.00463
2289.23197,0.00454
2287.30338,0.00443
2285.37479,0.00433
2283.44621,0.00424
2281.51762,0.00411
2279.58903,0.00392
2277.66045,0.00374
2275.73186,0.00374
2273.80328,0.00372
2271.87469,0.00351
2269.94610,0.00335
2268.01752,0.00331
2266.08893,0.00323
2264.16034,0.00305
2262.23176,0.00283
2260.30317,0.00273
2258.37459,0.00267
2256.44600,0.00253
2254.51741,0.00242
2252.58883,0.00241
2250.66024,0.00238
2248.73165,0.00231
2246.80307,0.00218
2244.87448,0.00205
2242.94589,0.00205
2241.01731,0.00204
2239.08872,0.00189
2237.16014,0.00172
2235.23155,0.00156
2233.30296,0.00149
2231.37438,0.00148
2229.44579,0.00140
2227.51720,0.00133
2225.58862,0.00123
2223.66003,0.00112
2221.73145,0.00105
2219.80286,0.00091
2217.87427,0.00080
2215.94569,0.00080
2214.01710,0.00080
2212.08851,0.00072
2210.15993,0.00060
2208.23134,0.00049
2206.30275,0.00034
2204.37417,0.00028
2202.44558,0.00034
2200.51700,0.00035
2198.58841,0.00039
2196.65982,0.00042
2194.73124,0.00031
2192.80265,0.00019
2190.87406,0.00025
2188.94548,0.00033
2187.01689,0.00024
2185.08830,0.00023
2183.15972,0.00035
2181.23113,0.00033
2179.30255,0.00021
2177.37396,0.00021
2175.44537,0.00024
2173.51679,0.00021
2171.58820,0.00009
2169.65961,0.00000
2167.73103,0.00015
2165.80244,0.00027
2163.87386,0.00026
2161.94527,0.00028
2160.01668,0.00024
2158.08810,0.00019
2156.15951,0.00017
2154.23092,0.00019
2152.30234,0.00025
2150.37375,0.00026
2148.44516,0.00029
2146.51658,0.00030
2144.58799,0.00032
2142.65941,0.00029
2140.73082,0.00021
2138.80223,0.00023
2136.87365,0.00023
2134.94506,0.00025
2133.01647,0.00025
2131.08789,0.00018
2129.15930,0.00011
2127.23072,0.00004
2125.30213,0.00009
2123.37354,0.00014
2121.44496,0.00013
2119.51637,0.00008
2117.58778,-0.00000
2115.65920,0.00001
2113.73061,-0.00002
2111.80202,-0.00005
2109.87344,-0.00004
2107.94485,-0.00003
2106.01627,0.00004
2104.08768,0.00003
2102.15909,0.00002
2100.23051,0.00007
2098.30192,0.00004
2096.37333,-0.00005
2094.44475,-0.00011
2092.51616,-0.00011
2090.58758,-0.00014
2088.65899,-0.00013
2086.73040,-0.00002
2084.80182,-0.00002
2082.87323,-0.00005
2080.94464,0.00000
2079.01606,-0.00000
2077.08747,-0.00004
2075.15888,-0.00006
2073.23030,-0.00008
2071.30171,-0.00011
2069.37313,-0.00015
2067.44454,-0.00019
2065.51595,-0.00018
2063.58737,-0.00015
2061.65878,-0.00009
2059.73019,-0.00005
2057.80161,0.00001
2055.87302,0.00005
2053.94443,0.00001
2052.01585,0.00006
2050.08726,0.00017
2048.15868,0.00022
2046.23009,0.00024
2044.30150,0.00028
2042.37292,0.00046
2040.44433,0.00066
2038.51574,0.00082
2036.58716,0.00101
2034.65857,0.00122
2032.72999,0.00144
2030.80140,0.00155
2028.87281,0.00161
2026.94423,0.00165
2025.01564,0.00166
2023.08705,0.00172
2021.15847,0.00174
2019.22988,0.00178
2017.30129,0.00182
2015.37271,0.00190
2013.44412,0.00215
2011.51554,0.00231
2009.58695,0.00235
2007.65836,0.00245
2005.72978,0.00256
2003.80119,0.00263
2001.87260,0.00269
1999.94402,0.00272
1998.01543,0.00274
1996.08685,0.00273
1994.15826,0.00274
1992.22967,0.00278
1990.30109,0.00262
1988.37250,0.00244
1986.44391,0.00241
1984.51533,0.00240
1982.58674,0.00236
1980.65815,0.00227
1978.72957,0.00227
1976.80098,0.00218
1974.87240,0.00200
1972.94381,0.00197
1971.01522,0.00188
1969.08664,0.00173
1967.15805,0.00157
1965.22946,0.00135
1963.30088,0.00122
1961.37229,0.00104
1959.44371,0.00086
1957.51512,0.00082
1955.58653,0.00076
1953.65795,0.00063
1951.72936,0.00052
1949.80077,0.00048
1947.87219,0.00042
1945.94360,0.00037
1944.01501,0.00034
1942.08643,0.00021
1940.15784,0.00012
1938.22926,0.00012
1936.30067,0.00000
1934.37208,-0.00006
1932.44350,-0.00003
1930.51491,-0.00005
1928.58632,-0.00006
1926.65774,-0.00008
1924.72915,0.00000
1922.80056,-0.00002
1920.87198,0.00003
1918.94339,0.00019
1917.01481,0.00018
1915.08622,0.00038
1913.15763,0.00084
1911.22905,0.00131
1909.30046,0.00173
1907.37187,0.00206
1905.44329,0.00257
1903.51470,0.00315
1901.58612,0.00364
1899.65753,0.00409
1897.72894,0.00453
1895.80036,0.00501
1893.87177,0.00536
1891.94318,0.00578
1890.01460,0.00608
1888.08601,0.00621
1886.15742,0.00664
1884.22884,0.00700
1882.30025,0.00717
1880.37167,0.00731
1878.44308,0.00741
1876.51449,0.00750
1874.58591,0.00755
1872.65732,0.00776
1870.72873,0.00787
1868.80015,0.00753
1866.87156,0.00704
1864.94298,0.00680
1863.01439,0.00643
1861.08580,0.00581
1859.15722,0.00524
1857.22863,0.00452
1855.30004,0.00388
1853.37146,0.00320
1851.44287,0.00255
1849.51428,0.00197
1847.58570,0.00152
1845.65711,0.00143
1843.72853,0.00066
1841.79994,0.00000
1839.87135,-0.00008
1837.94277,-0.00028
1836.01418,-0.00042
1834.08559,-0.00052
1832.15701,-0.00031
1830.22842,-0.00033
1828.29984,-0.00051
1826.37125,-0.00014
1824.44266,-0.00000
1822.51408,0.00010
1820.58549,0.00043
1818.65690,0.00093
1816.72832,0.00148
1814.79973,0.00207
1812.87114,0.00292
1810.94256,0.00368
1809.01397,0.00448
1807.08539,0.00543
1805.15680,0.00659
1803.22821,0.00796
1801.29963,0.00921
1799.37104,0.01048
1797.44245,0.01203
1795.51387,0.01396
1793.58528,0.01586
1791.65669,0.01722
1789.72811,0.01874
1787.79952,0.02098
1785.87094,0.02313
1783.94235,0.02507
1782.01376,0.02718
1780.08518,0.02924
1778.15659,0.03130
1776.22800,0.03345
1774.29942,0.03580
1772.37083,0.03755
1770.44225,0.03899
1768.51366,0.04112
1766.58507,0.04296
1764.65649,0.04523
1762.72790,0.04768
1760.79931,0.04963
1758.87073,0.05221
1756.94214,0.05501
1755.01355,0.05820
1753.08497,0.06202
1751.15638,0.06571
1749.22780,0.06941
1747.29921,0.07368
1745.37062,0.07834
1743.44204,0.08305
1741.51345,0.08791
1739.58486,0.09239
1737.65628,0.09671
1735.72769,0.10130
1733.79911,0.10411
1731.87052,0.10616
1729.94193,0.10936
1728.01335,0.11217
1726.08476,0.11510
1724.15617,0.11801
1722.22759,0.12072
1720.29900,0.12426
1718.37041,0.12725
1716.44183,0.12923
1714.51324,0.13145
1712.58466,0.13416
1710.65607,0.13672
1708.72748,0.13906
1706.79890,0.14153
1704.87031,0.14370
1702.94172,0.14690
1701.01314,0.15020
1699.08455,0.15227
1697.15596,0.15574
1695.22738,0.15867
1693.29879,0.16134
1691.37021,0.16543
1689.44162,0.16863
1687.51303,0.17230
1685.58445,0.17608
1683.65586,0.17812
1681.72727,0.18125
1679.79869,0.18513
1677.87010,0.18895
1675.94152,0.19225
1674.01293,0.19479
1672.08434,0.19796
1670.15576,0.20068
1668.22717,0.20257
1666.29858,0.20484
1664.37000,0.20720
1662.44141,0.20852
1660.51282,0.20945
1658.58424,0.21046
1656.65565,0.21140
1654.72707,0.21248
1652.79848,0.21043
1650.86989,0.20840
1648.94131,0.20930
1647.01272,0.20886
1645.08413,0.20730
1643.15555,0.20680
1641.22696,0.20676
1639.29838,0.20667
1637.36979,0.20692
1635.44120,0.20610
1633.51262,0.20477
1631.58403,0.20463
1629.65544,0.20369
1627.72686,0.20188
1625.79827,0.19985
1623.86968,0.19744
1621.94110,0.19435
1620.01251,0.19188
1618.08393,0.18988
1616.15534,0.18599
1614.22675,0.18294
1612.29817,0.18084
1610.36958,0.17828
1608.44099,0.17594
1606.51241,0.17385
1604.58382,0.17215
1602.65524,0.17012
1600.72665,0.16807
1598.79806,0.16614
1596.86948,0.16425
1594.94089,0.16240
1593.01230,0.16055
1591.08372,0.15875
1589.15513,0.15679
1587.22654,0.15513
1585.29796,0.15325
1583.36937,0.15131
1581.44079,0.14951
1579.51220,0.14827
1577.58361,0.14746
1575.65503,0.14532
1573.72644,0.14388
1571.79785,0.14409
1569.86927,0.14367
1567.94068,0.14294
1566.01209,0.14321
1564.08351,0.14368
1562.15492,0.14486
1560.22634,0.14601
1558.29775,0.14486
1556.36916,0.14498
1554.44058,0.14619
1552.51199,0.14660
1550.58340,0.14723
1548.65482,0.14752
1546.72623,0.14796
1544.79765,0.14813
1542.86906,0.14796
1540.94047,0.14779
1539.01189,0.14595
1537.08330,0.14508
1535.15471,0.14514
1533.22613,0.14394
1531.29754,0.14253
1529.36895,0.14183
1527.44037,0.14092
1525.51178,0.13947
1523.58320,0.13878
1521.65461,0.13776
1519.72602,0.13642
1517.79744,0.13606
1515.86885,0.13484
1513.94026,0.13269
1512.01168,0.13000
1510.08309,0.12726
1508.15451,0.12478
1506.22592,0.11994
1504.29733,0.11491
1502.36875,0.11178
1500.44016,0.10847
1498.51157,0.10496
1496.58299,0.10099
1494.65440,0.09714
1492.72581,0.09478
1490.79723,0.09232
1488.86864,0.08957
1486.94006,0.08778
1485.01147,0.08688
1483.08288,0.08671
1481.15430,0.08694
1479.22571,0.08801
1477.29712,0.09029
1475.36854,0.09376
1473.43995,0.09861
1471.51137,0.10450
1469.58278,0.11106
1467.65419,0.11689
1465.72561,0.11979
1463.79702,0.12052
1461.86843,0.12105
1459.93985,0.12211
1458.01126,0.12312
1456.08267,0.12273
1454.15409,0.12247
1452.22550,0.12245
1450.29692,0.12197
1448.36833,0.12162
1446.43974,0.12094
1444.51116,0.12044
1442.58257,0.12027
1440.65398,0.12022
1438.72540,0.12049
1436.79681,0.11987
1434.86822,0.11902
1432.93964,0.11905
1431.01105,0.11884
1429.08247,0.11822
1427.15388,0.11800
1425.22529,0.11806
1423.29671,0.11821
1421.36812,0.11882
1419.43953,0.11899
1417.51095,0.11845
1415.58236,0.11845
1413.65378,0.11828
1411.72519,0.11778
1409.79660,0.11733
1407.86802,0.11674
1405.93943,0.11614
1404.01084,0.11515
1402.08226,0.11434
1400.15367,0.11362
1398.22508,0.11254
1396.29650,0.11174
1394.36791,0.11099
1392.43933,0.11051
1390.51074,0.11079
1388.58215,0.11112
1386.65357,0.11087
1384.72498,0.11084
1382.79639,0.11170
1380.86781,0.11280
1378.93922,0.11339
1377.01064,0.11324
1375.08205,0.11248
1373.15346,0.11123
1371.22488,0.10987
1369.29629,0.10853
1367.36770,0.10696
1365.43912,0.10555
1363.51053,0.10411
1361.58194,0.10246
1359.65336,0.10118
1357.72477,0.10023
1355.79619,0.09932
1353.86760,0.09846
1351.93901,0.09760
1350.01043,0.09681
1348.08184,0.09625
1346.15325,0.09563
1344.22467,0.09503
1342.29608,0.09452
1340.36750,0.09391
1338.43891,0.09326
1336.51032,0.09281
1334.58174,0.09253
1332.65315,0.09213
1330.72456,0.09173
1328.79598,0.09136
1326.86739,0.09094
1324.93880,0.09065
1323.01022,0.09035
1321.08163,0.08993
1319.15305,0.08955
1317.22446,0.08940
1315.29587,0.08936
1313.36729,0.08911
1311.43870,0.08874
1309.51011,0.08841
1307.58153,0.08815
1305.65294,0.08792
1303.72435,0.08775
1301.79577,0.08768
1299.86718,0.08753
1297.93860,0.08742
1296.01001,0.08769
1294.08142,0.08818
1292.15284,0.08871
1290.22425,0.08951
1288.29566,0.09070
1286.36708,0.09206
1284.43849,0.09356
1282.50991,0.09514
1280.58132,0.09662
1278.65273,0.09827
1276.72415,0.10018
1274.79556,0.10202
1272.86697,0.10408
1270.93839,0.10635
1269.00980,0.10857
1267.08121,0.11101
1265.15263,0.11375
1263.22404,0.11686
1261.29546,0.12028
1259.36687,0.12411
1257.43828,0.12863
1255.50970,0.13375
1253.58111,0.13943
1251.65252,0.14537
1249.72394,0.15138
1247.79535,0.15730
1245.86677,0.16286
1243.93818,0.16815
1242.00959,0.17312
1240.08101,0.17780
1238.15242,0.18201
1236.22383,0.18574
1234.29525,0.18940
1232.36666,0.19272
1230.43807,0.19557
1228.50949,0.19814
1226.58090,0.20040
1224.65232,0.20254
1222.72373,0.20467
1220.79514,0.20672
1218.86656,0.20883
1216.93797,0.21087
1215.00938,0.21270
1213.08080,0.21442
1211.15221,0.21612
1209.22363,0.21806
1207.29504,0.22006
1205.36645,0.22192
1203.43787,0.22354
1201.50928,0.22480
1199.58069,0.22622
1197.65211,0.22767
1195.72352,0.22891
1193.79493,0.23025
1191.86635,0.23168
1189.93776,0.23319
1188.00918,0.23469
1186.08059,0.23613
1184.15200,0.23769
1182.22342,0.23945
1180.29483,0.24146
1178.36624,0.24369
1176.43766,0.24608
1174.50907,0.24857
1172.58048,0.25111
1170.65190,0.25398
1168.72331,0.25689
1166.79473,0.25943
1164.86614,0.26207
1162.93755,0.26457
1161.00897,0.26626
1159.08038,0.26732
1157.15179,0.26799
1155.22321,0.26878
1153.29462,0.27005
1151.36604,0.27142
1149.43745,0.27271
1147.50886,0.27443
1145.58028,0.27671
1143.65169,0.27897
1141.72310,0.28148
1139.79452,0.28428
1137.86593,0.28718
1135.93734,0.29057
1134.00876,0.29410
1132.08017,0.29745
1130.15159,0.30083
1128.22300,0.30503
1126.29441,0.31015
1124.36583,0.31498
1122.43724,0.31979
1120.50865,0.32516
1118.58007,0.33078
1116.65148,0.33636
1114.72290,0.34215
1112.79431,0.34878
1110.86572,0.35534
1108.93714,0.36153
1107.00855,0.36751
1105.07996,0.37216
1103.15138,0.37591
1101.22279,0.37941
1099.29420,0.38225
1097.36562,0.38397
1095.43703,0.38469
1093.50845,0.38508
1091.57986,0.38473
1089.65127,0.38392
1087.72269,0.38353
1085.79410,0.38248
1083.86551,0.38039
1081.93693,0.37862
1080.00834,0.37668
1078.07976,0.37434
1076.15117,0.37222
1074.22258,0.36977
1072.29400,0.36746
1070.36541,0.36536
1068.43682,0.36310
1066.50824,0.36100
1064.57965,0.35875
1062.65106,0.35632
1060.72248,0.35382
1058.79389,0.35093
1056.86531,0.34749
1054.93672,0.34406
1053.00813,0.34077
1051.07955,0.33756
1049.15096,0.33480
1047.22237,0.33263
1045.29379,0.33119
1043.36520,0.33035
1041.43661,0.32985
1039.50803,0.32942
1037.57944,0.32895
1035.65086,0.32804
1033.72227,0.32655
1031.79368,0.32479
1029.86510,0.32227
1027.93651,0.31911
1026.00792,0.31567
1024.07934,0.31194
1022.15075,0.30801
1020.22217,0.30386
1018.29358,0.30004
1016.36499,0.29642
1014.43641,0.29283
1012.50782,0.28924
1010.57923,0.28539
1008.65065,0.28200
1006.72206,0.27847
1004.79347,0.27399
1002.86489,0.26926
1000.93630,0.26445
999.00772,0.25937
997.07913,0.25416
995.15054,0.24899
993.22196,0.24369
991.29337,0.23840
989.36478,0.23329
987.43620,0.22767
985.50761,0.22127
983.57903,0.21453
981.65044,0.20756
979.72185,0.20022
977.79327,0.19245
975.86468,0.18438
973.93609,0.17631
972.00751,0.16867
970.07892,0.16133
968.15033,0.15408
966.22175,0.14724
964.29316,0.14081
962.36458,0.13501
960.43599,0.13002
958.50740,0.12557
956.57882,0.12147
954.65023,0.11758
952.72164,0.11437
950.79306,0.11204
948.86447,0.10985
946.93589,0.10768
945.00730,0.10582
943.07871,0.10440
941.15013,0.10316
939.22154,0.10154
937.29295,0.09985
935.36437,0.09854
933.43578,0.09731
931.50719,0.09590
929.57861,0.09440
927.65002,0.09302
925.72144,0.09200
923.79285,0.09124
921.86426,0.09055
919.93568,0.08973
918.00709,0.08899
916.07850,0.08859
914.14992,0.08790
912.22133,0.08609
910.29274,0.08305
908.36416,0.07934
906.43557,0.07502
904.50699,0.07010
902.57840,0.06529
900.64981,0.06048
898.72123,0.05561
896.79264,0.05119
894.86405,0.04714
892.93547,0.04367
891.00688,0.04042
889.07830,0.03707
887.14971,0.03432
885.22112,0.03173
883.29254,0.02896
881.36395,0.02629
879.43536,0.02362
877.50678,0.02120
875.57819,0.01837
873.64960,0.01556
871.72102,0.01349
869.79243,0.01111
867.86385,0.00876
865.93526,0.00673
864.00667,0.00498
862.07809,0.00347
860.14950,0.00184
858.22091,0.00086
856.29233,0.00043
854.36374,0.00000
852.43516,-0.00018
850.50657,0.00040
848.57798,0.00164
846.64940,0.00298
844.72081,0.00482
842.79222,0.00702
840.86364,0.00948
838.93505,0.01265
837.00646,0.01619
835.07788,0.01935
833.14929,0.02197
831.22071,0.02478
829.29212,0.02752
827.36353,0.02942
825.43495,0.03046
823.50636,0.03150
821.57777,0.03282
819.64919,0.03335
817.72060,0.03399
815.79201,0.03519
813.86343,0.03701
811.93484,0.04033
810.00626,0.04419
808.07767,0.04881
806.14908,0.05455
804.22050,0.05992
802.29191,0.06358
800.36332,0.06522
798.43474,0.06490
796.50615,0.06201
794.57757,0.05815
792.64898,0.05474
790.72039,0.05108
788.79181,0.04785
786.86322,0.04615
784.93463,0.04574
783.00605,0.04591
781.07746,0.04616
779.14887,0.04474
777.22029,0.04080
775.29170,0.03606
773.36312,0.03124
771.43453,0.02672
769.50594,0.02326
767.57736,0.02152
765.64877,0.02099
763.72018,0.02053
761.79160,0.02048
759.86301,0.02047
757.93443,0.02042
756.00584,0.02052
754.07725,0.01968
752.14867,0.01868
750.22008,0.01814
748.29149,0.01714
746.36291,0.01595
744.43432,0.01458
742.50573,0.01289
740.57715,0.01123
738.64856,0.00927
736.71998,0.00769
734.79139,0.00705
732.86280,0.00668
730.93422,0.00622
729.00563,0.00623
727.07704,0.00714
725.14846,0.00797
723.21987,0.00832
721.29129,0.00811
719.36270,0.00691
717.43411,0.00548
715.50553,0.00440
713.57694,0.00414
711.64835,0.00436
709.71977,0.00456
707.79118,0.00513
705.86259,0.00624
703.93401,0.00842
702.00542,0.01123
700.07684,0.01483
698.14825,0.01873
696.21966,0.02077
694.29108,0.01985
692.36249,0.01658
690.43390,0.01338
688.50532,0.01102
686.57673,0.00947
684.64814,0.00908
682.71956,0.00865
680.79097,0.00762
678.86239,0.00658
676.93380,0.00608
675.00521,0.00530
673.07663,0.00456
671.14804,0.00504
669.21945,0.00496
667.29087,0.00396
665.36228,0.00362
663.43370,0.00350
661.50511,0.00354
659.57652,0.00399
657.64794,0.00471
655.71935,0.00559
653.79076,0.00657
651.86218,0.00754
649.93359,0.00821
648.00500,0.00815
646.07642,0.00784
644.14783,0.00793
642.21925,0.00829
640.29066,0.00802
638.36207,0.00750
636.43349,0.00876
634.50490,0.01053
632.57631,0.01124
630.64773,0.01218
628.71914,0.01277
626.79056,0.01304
624.86197,0.01418
622.93338,0.01479
621.00480,0.01450
619.07621,0.01458
617.14762,0.01529
615.21904,0.01671
613.29045,0.01802
611.36186,0.01888
609.43328,0.01911
607.50469,0.01944
605.57611,0.02138
603.64752,0.02297
601.71893,0.02320
599.79035,0.02411
597.86176,0.02618
595.93317,0.02806
594.00459,0.03014
592.07600,0.03370
590.14742,0.03659
588.21883,0.03912
586.29024,0.04315
584.36166,0.04629
582.43307,0.04814
580.50448,0.05100
578.57590,0.05462
576.64731,0.05795
574.71872,0.06137
572.79014,0.06512
570.86155,0.06926
568.93297,0.07226
567.00438,0.07524
565.07579,0.08041
563.14721,0.08469
561.21862,0.08725
559.29003,0.09043
557.36145,0.09577
555.43286,0.10020
553.50427,0.10150
551.57569,0.10374
549.64710,0.10776
547.71852,0.11182
545.78993,0.11401
543.86134,0.11575
541.93276,0.11995
540.00417,0.12500
538.07558,0.12932
536.14700,0.13215
534.21841,0.13461
532.28983,0.13824
530.36124,0.14152
528.43265,0.14157
526.50407,0.13998
524.57548,0.14011
522.64689,0.13888
520.71831,0.13455
518.78972,0.12962
516.86113,0.12534
514.93255,0.12321
513.00396,0.12233
511.07538,0.11945
509.14679,0.11523
507.21820,0.11279
505.28962,0.11281
503.36103,0.11421
501.43244,0.11716
499.50386,0.12061
497.57527,0.12373
495.64669,0.13072
493.71810,0.14006
491.78951,0.14931
489.86093,0.16078
487.93234,0.17042
486.00375,0.18043
484.07517,0.19248
482.14658,0.20141
480.21799,0.20983
478.28941,0.21824
476.36082,0.22591
474.43224,0.23353
472.50365,0.23855
470.57506,0.23858
468.64648,0.23314
466.71789,0.22364
464.78930,0.21420
462.86072,0.20568
460.93213,0.19925
459.00355,0.19183
457.07496,0.17760
455.14637,0.16381
453.21779,0.15299
451.28920,0.14247
449.36061,0.13166
447.43203,0.12562
445.50344,0.12333
443.57485,0.11566
441.64627,0.10925
439.71768,0.10371
437.78910,0.09900
435.86051,0.09710
433.93192,0.09246
432.00334,0.09009
430.07475,0.08817
428.14616,0.08498
426.21758,0.07956
424.28899,0.07171
422.36040,0.06138
420.43182,0.04820
418.50323,0.04517
416.57465,0.04737
414.64606,0.04450
412.71747,0.04003
410.78889,0.03484
408.86030,0.02106
406.93171,0.00314
405.00313,0.00000
403.07454,0.00173
401.14596,-0.00046
399.21737,0.00000
