3747.24323,0.00028
3745.31464,0.00184
3743.38605,0.00000
3741.45747,0.00011
3739.52888,0.00236
3737.60030,0.00326
3735.67171,0.00315
3733.74312,0.00284
3731.81454,0.00316
3729.88595,0.00381
3727.95736,0.00525
3726.02878,0.00632
3724.10019,0.00695
3722.17161,0.00853
3720.24302,0.00998
3718.31443,0.01208
3716.38585,0.01443
3714.45726,0.01749
3712.52867,0.02081
3710.60009,0.02285
3708.67150,0.02605
3706.74291,0.02982
3704.81433,0.03388
3702.88574,0.03763
3700.95716,0.03994
3699.02857,0.04206
3697.09998,0.04333
3695.17140,0.04412
3693.24281,0.04466
3691.31422,0.04575
3689.38564,0.04663
3687.45705,0.04677
3685.52846,0.04894
3683.59988,0.05237
3681.67129,0.05597
3679.74271,0.05939
3677.81412,0.06403
3675.88553,0.06828
3673.95695,0.07113
3672.02836,0.07672
3670.09977,0.08169
3668.17119,0.08507
3666.24260,0.09017
3664.31402,0.09530
3662.38543,0.10012
3660.45684,0.10461
3658.52826,0.10901
3656.59967,0.11278
3654.67108,0.11580
3652.74250,0.12018
3650.81391,0.12421
3648.88532,0.12655
3646.95674,0.12880
3645.02815,0.13191
3643.09957,0.13531
3641.17098,0.13832
3639.24239,0.14126
3637.31381,0.14433
3635.38522,0.14748
3633.45663,0.15035
3631.52805,0.15389
3629.59946,0.15665
3627.67088,0.15661
3625.74229,0.15764
3623.81370,0.15956
3621.88512,0.16049
3619.95653,0.16013
3618.02794,0.15800
3616.09936,0.15652
3614.17077,0.15547
3612.24218,0.15403
3610.31360,0.15305
3608.38501,0.15174
3606.45643,0.15046
3604.52784,0.14998
3602.59925,0.14942
3600.67067,0.14837
3598.74208,0.14746
3596.81349,0.14698
3594.88491,0.14653
3592.95632,0.14582
3591.02774,0.14554
3589.09915,0.14556
3587.17056,0.14504
3585.24198,0.14499
3583.31339,0.14573
3581.38480,0.14619
3579.45622,0.14625
3577.52763,0.14643
3575.59904,0.14689
3573.67046,0.14761
3571.74187,0.14850
3569.81329,0.14956
3567.88470,0.15021
3565.95611,0.15015
3564.02753,0.15078
3562.09894,0.15210
3560.17035,0.15292
3558.24177,0.15361
3556.31318,0.15447
3554.38459,0.15543
3552.45601,0.15633
3550.52742,0.15714
3548.59884,0.15825
3546.67025,0.15915
3544.74166,0.15965
3542.81308,0.16029
3540.88449,0.16125
3538.95590,0.16243
3537.02732,0.16349
3535.09873,0.16447
3533.17015,0.16531
3531.24156,0.16601
3529.31297,0.16685
3527.38439,0.16784
3525.45580,0.16875
3523.52721,0.16947
3521.59863,0.17025
3519.67004,0.17120
3517.74145,0.17213
3515.81287,0.17288
3513.88428,0.17370
3511.95570,0.17477
3510.02711,0.17559
3508.09852,0.17616
3506.16994,0.17706
3504.24135,0.17806
3502.31276,0.17876
3500.38418,0.17953
3498.45559,0.18053
3496.52701,0.18136
3494.59842,0.18215
3492.66983,0.18315
3490.74125,0.18414
3488.81266,0.18496
3486.88407,0.18554
3484.95549,0.18607
3483.02690,0.18678
3481.09831,0.18759
3479.16973,0.18846
3477.24114,0.18920
3475.31256,0.18971
3473.38397,0.19039
3471.45538,0.19107
3469.52680,0.19168
3467.59821,0.19239
3465.66962,0.19300
3463.74104,0.19354
3461.81245,0.19412
3459.88386,0.19484
3457.95528,0.19567
3456.02669,0.19639
3454.09811,0.19693
3452.16952,0.19753
3450.24093,0.19831
3448.31235,0.19893
3446.38376,0.19938
3444.45517,0.19992
3442.52659,0.20039
3440.59800,0.20059
3438.66942,0.20085
3436.74083,0.20151
3434.81224,0.20208
3432.88366,0.20247
3430.95507,0.20309
3429.02648,0.20371
3427.09790,0.20397
3425.16931,0.20412
3423.24072,0.20460
3421.31214,0.20507
3419.38355,0.20523
3417.45497,0.20556
3415.52638,0.20619
3413.59779,0.20651
3411.66921,0.20655
3409.74062,0.20691
3407.81203,0.20730
3405.88345,0.20748
3403.95486,0.20761
3402.02628,0.20781
3400.09769,0.20803
3398.16910,0.20810
3396.24052,0.20830
3394.31193,0.20865
3392.38334,0.20881
3390.45476,0.20884
3388.52617,0.20903
3386.59758,0.20926
3384.66900,0.20934
3382.74041,0.20954
3380.81183,0.20980
3378.88324,0.20985
3376.95465,0.20989
3375.02607,0.21009
3373.09748,0.21024
3371.16889,0.21031
3369.24031,0.21038
3367.31172,0.21040
3365.38314,0.21053
3363.45455,0.21051
3361.52596,0.21055
3359.59738,0.21076
3357.66879,0.21086
3355.74020,0.21111
3353.81162,0.21127
3351.88303,0.21122
3349.95444,0.21126
3348.02586,0.21135
3346.09727,0.21143
3344.16869,0.21135
3342.24010,0.21130
3340.31151,0.21136
3338.38293,0.21128
3336.45434,0.21120
3334.52575,0.21129
3332.59717,0.21140
3330.66858,0.21131
3328.73999,0.21105
3326.81141,0.21098
3324.88282,0.21101
3322.95424,0.21088
3321.02565,0.21076
3319.09706,0.21068
3317.16848,0.21066
3315.23989,0.21080
3313.31130,0.21074
3311.38272,0.21052
3309.45413,0.21040
3307.52555,0.21033
3305.59696,0.21029
3303.66837,0.21025
3301.73979,0.21002
3299.81120,0.20961
3297.88261,0.20934
3295.95403,0.20923
3294.02544,0.20892
3292.09685,0.20860
3290.16827,0.20838
3288.23968,0.20808
3286.31110,0.20781
3284.38251,0.20748
3282.45392,0.20689
3280.52534,0.20615
3278.59675,0.20566
3276.66816,0.20536
3274.73958,0.20476
3272.81099,0.20388
3270.88241,0.20307
3268.95382,0.20244
3267.02523,0.20180
3265.09665,0.20094
3263.16806,0.20002
3261.23947,0.19910
3259.31089,0.19816
3257.38230,0.19731
3255.45371,0.19648
3253.52513,0.19564
3251.59654,0.19477
3249.66796,0.19388
3247.73937,0.19303
3245.81078,0.19207
3243.88220,0.19126
3241.95361,0.19061
3240.02502,0.18979
3238.09644,0.18899
3236.16785,0.18833
3234.23927,0.18755
3232.31068,0.18667
3230.38209,0.18601
3228.45351,0.18541
3226.52492,0.18450
3224.59633,0.18374
3222.66775,0.18321
3220.73916,0.18247
3218.81057,0.18166
3216.88199,0.18082
3214.95340,0.18001
3213.02482,0.17939
3211.09623,0.17870
3209.16764,0.17780
3207.23906,0.17712
3205.31047,0.17662
3203.38188,0.17585
3201.45330,0.17492
3199.52471,0.17404
3197.59612,0.17318
3195.66754,0.17238
3193.73895,0.17159
3191.81037,0.17077
3189.88178,0.17003
3187.95319,0.16925
3186.02461,0.16831
3184.09602,0.16747
3182.16743,0.16662
3180.23885,0.16573
3178.31026,0.16508
3176.38168,0.16435
3174.45309,0.16345
3172.52450,0.16259
3170.59592,0.16175
3168.66733,0.16101
3166.73874,0.16022
3164.81016,0.15918
3162.88157,0.15822
3160.95298,0.15739
3159.02440,0.15664
3157.09581,0.15604
3155.16723,0.15524
3153.23864,0.15429
3151.31005,0.15353
3149.38147,0.15294
3147.45288,0.15229
3145.52429,0.15156
3143.59571,0.15104
3141.66712,0.15055
3139.73854,0.14983
3137.80995,0.14897
3135.88136,0.14824
3133.95278,0.14774
3132.02419,0.14731
3130.09560,0.14679
3128.16702,0.14622
3126.23843,0.14568
3124.30984,0.14507
3122.38126,0.14447
3120.45267,0.14414
3118.52409,0.14383
3116.59550,0.14330
3114.66691,0.14282
3112.73833,0.14248
3110.80974,0.14199
3108.88115,0.14162
3106.95257,0.14146
3105.02398,0.14109
3103.09540,0.14053
3101.16681,0.13999
3099.23822,0.13974
3097.30964,0.13949
3095.38105,0.13905
3093.45246,0.13864
3091.52388,0.13821
3089.59529,0.13800
3087.66670,0.13772
3085.73812,0.13715
3083.80953,0.13668
3081.88095,0.13630
3079.95236,0.13591
3078.02377,0.13538
3076.09519,0.13491
3074.16660,0.13450
3072.23801,0.13396
3070.30943,0.13342
3068.38084,0.13295
3066.45225,0.13256
3064.52367,0.13209
3062.59508,0.13145
3060.66650,0.13073
3058.73791,0.13000
3056.80932,0.12933
3054.88074,0.12869
3052.95215,0.12806
3051.02356,0.12735
3049.09498,0.12670
3047.16639,0.12611
3045.23781,0.12548
3043.30922,0.12488
3041.38063,0.12433
3039.45205,0.12383
3037.52346,0.12322
3035.59487,0.12265
3033.66629,0.12226
3031.73770,0.12187
3029.80911,0.12156
3027.88053,0.12107
3025.95194,0.12044
3024.02336,0.12005
3022.09477,0.11982
3020.16618,0.11955
3018.23760,0.11922
3016.30901,0.11906
3014.38042,0.11910
3012.45184,0.11913
3010.52325,0.11916
3008.59467,0.11926
3006.66608,0.11944
3004.73749,0.11969
3002.80891,0.11994
3000.88032,0.12024
2998.95173,0.12073
2997.02315,0.12127
2995.09456,0.12186
2993.16597,0.12265
2991.23739,0.12364
2989.30880,0.12475
2987.38022,0.12575
2985.45163,0.12695
2983.52304,0.12857
2981.59446,0.13024
2979.66587,0.13192
2977.73728,0.13377
2975.80870,0.13571
2973.88011,0.13779
2971.95153,0.14010
2970.02294,0.14258
2968.09435,0.14503
2966.16577,0.14729
2964.23718,0.14971
2962.30859,0.15228
2960.38001,0.15454
2958.45142,0.15661
2956.52283,0.15845
2954.59425,0.16006
2952.66566,0.16163
2950.73708,0.16326
2948.80849,0.16530
2946.87990,0.16789
2944.95132,0.17090
2943.02273,0.17457
2941.09414,0.17890
2939.16556,0.18351
2937.23697,0.18846
2935.30838,0.19368
2933.37980,0.19868
2931.45121,0.20359
2929.52263,0.20831
2927.59404,0.21247
2925.66545,0.21584
2923.73687,0.21816
2921.80828,0.21913
2919.87969,0.21824
2917.95111,0.21483
2916.02252,0.20799
2914.09394,0.19821
2912.16535,0.18826
2910.23676,0.18019
2908.30818,0.17409
2906.37959,0.16934
2904.45100,0.16547
2902.52242,0.16205
2900.59383,0.15894
2898.66524,0.15604
2896.73666,0.15318
2894.80807,0.15047
2892.87949,0.14787
2890.95090,0.14542
2889.02231,0.14319
2887.09373,0.14094
2885.16514,0.13897
2883.23655,0.13747
2881.30797,0.13624
2879.37938,0.13530
2877.45080,0.13479
2875.52221,0.13477
2873.59362,0.13497
2871.66504,0.13518
2869.73645,0.13564
2867.80786,0.13647
2865.87928,0.13784
2863.95069,0.14019
2862.02210,0.14379
2860.09352,0.14859
2858.16493,0.15443
2856.23635,0.16064
2854.30776,0.16612
2852.37917,0.16949
2850.45059,0.16841
2848.52200,0.16099
2846.59341,0.14901
2844.66483,0.13659
2842.73624,0.12607
2840.80766,0.11762
2838.87907,0.11100
2836.95048,0.10580
2835.02190,0.10157
2833.09331,0.09815
2831.16472,0.09536
2829.23614,0.09292
2827.30755,0.09069
2825.37896,0.08879
2823.45038,0.08718
2821.52179,0.08562
2819.59321,0.08413
2817.66462,0.08276
2815.73603,0.08149
2813.80745,0.08039
2811.87886,0.07928
2809.95027,0.07818
2808.02169,0.07729
2806.09310,0.07638
2804.16451,0.07550
2802.23593,0.07477
2800.30734,0.07393
2798.37876,0.07306
2796.45017,0.07235
2794.52158,0.07155
2792.59300,0.07068
2790.66441,0.07003
2788.73582,0.06947
2786.80724,0.06876
2784.87865,0.06806
2782.95007,0.06744
2781.02148,0.06689
2779.09289,0.06639
2777.16431,0.06583
2775.23572,0.06531
2773.30713,0.06480
2771.37855,0.06434
2769.44996,0.06391
2767.52137,0.06345
2765.59279,0.06295
2763.66420,0.06237
2761.73562,0.06201
2759.80703,0.06178
2757.87844,0.06139
2755.94986,0.06099
2754.02127,0.06062
2752.09268,0.06026
2750.16410,0.05986
2748.23551,0.05951
2746.30693,0.05919
2744.37834,0.05882
2742.44975,0.05854
2740.52117,0.05826
2738.59258,0.05791
2736.66399,0.05751
2734.73541,0.05712
2732.80682,0.05678
2730.87823,0.05646
2728.94965,0.05617
2727.02106,0.05580
2725.09248,0.05537
2723.16389,0.05498
2721.23530,0.05462
2719.30672,0.05415
2717.37813,0.05375
2715.44954,0.05338
2713.52096,0.05284
2711.59237,0.05238
2709.66379,0.05204
2707.73520,0.05164
2705.80661,0.05122
2703.87803,0.05086
2701.94944,0.05052
2700.02085,0.05019
2698.09227,0.04992
2696.16368,0.04955
2694.23509,0.04919
2692.30651,0.04895
2690.37792,0.04861
2688.44934,0.04830
2686.52075,0.04804
2684.59216,0.04782
2682.66358,0.04762
2680.73499,0.04731
2678.80640,0.04694
2676.87782,0.04657
2674.94923,0.04628
2673.02064,0.04600
2671.09206,0.04565
2669.16347,0.04525
2667.23489,0.04486
2665.30630,0.04452
2663.37771,0.04421
2661.44913,0.04391
2659.52054,0.04357
2657.59195,0.04330
2655.66337,0.04302
2653.73478,0.04259
2651.80620,0.04225
2649.87761,0.04198
2647.94902,0.04166
2646.02044,0.04144
2644.09185,0.04123
2642.16326,0.04101
2640.23468,0.04073
2638.30609,0.04035
2636.37750,0.03993
2634.44892,0.03959
2632.52033,0.03945
2630.59175,0.03922
2628.66316,0.03883
2626.73457,0.03853
2624.80599,0.03827
2622.87740,0.03793
2620.94881,0.03766
2619.02023,0.03744
2617.09164,0.03710
2615.16306,0.03676
2613.23447,0.03646
2611.30588,0.03613
2609.37730,0.03578
2607.44871,0.03539
2605.52012,0.03517
2603.59154,0.03500
2601.66295,0.03471
2599.73436,0.03442
2597.80578,0.03408
2595.87719,0.03380
2593.94861,0.03361
2592.02002,0.03331
2590.09143,0.03296
2588.16285,0.03265
2586.23426,0.03233
2584.30567,0.03207
2582.37709,0.03192
2580.44850,0.03171
2578.51991,0.03140
2576.59133,0.03108
2574.66274,0.03082
2572.73416,0.03059
2570.80557,0.03030
2568.87698,0.03006
2566.94840,0.02991
2565.01981,0.02974
2563.09122,0.02938
2561.16264,0.02901
2559.23405,0.02890
2557.30547,0.02875
2555.37688,0.02847
2553.44829,0.02826
2551.51971,0.02806
2549.59112,0.02781
2547.66253,0.02761
2545.73395,0.02744
2543.80536,0.02729
2541.87677,0.02711
2539.94819,0.02691
2538.01960,0.02670
2536.09102,0.02640
2534.16243,0.02615
2532.23384,0.02603
2530.30526,0.02583
2528.37667,0.02561
2526.44808,0.02546
2524.51950,0.02524
2522.59091,0.02487
2520.66233,0.02455
2518.73374,0.02442
2516.80515,0.02429
2514.87657,0.02408
2512.94798,0.02376
2511.01939,0.02342
2509.09081,0.02318
2507.16222,0.02300
2505.23363,0.02270
2503.30505,0.02239
2501.37646,0.02224
2499.44788,0.02197
2497.51929,0.02160
2495.59070,0.02136
2493.66212,0.02117
2491.73353,0.02092
2489.80494,0.02062
2487.87636,0.02038
2485.94777,0.02016
2484.01919,0.01990
2482.09060,0.01958
2480.16201,0.01927
2478.23343,0.01905
2476.30484,0.01877
2474.37625,0.01843
2472.44767,0.01811
2470.51908,0.01792
2468.59049,0.01766
2466.66191,0.01728
2464.73332,0.01704
2462.80474,0.01686
2460.87615,0.01660
2458.94756,0.01627
2457.01898,0.01596
2455.09039,0.01567
2453.16180,0.01545
2451.23322,0.01532
2449.30463,0.01505
2447.37604,0.01479
2445.44746,0.01450
2443.51887,0.01418
2441.59029,0.01397
2439.66170,0.01371
2437.73311,0.01350
2435.80453,0.01327
2433.87594,0.01299
2431.94735,0.01273
2430.01877,0.01242
2428.09018,0.01217
2426.16160,0.01195
2424.23301,0.01173
2422.30442,0.01150
2420.37584,0.01128
2418.44725,0.01109
2416.51866,0.01086
2414.59008,0.01060
2412.66149,0.01042
2410.73290,0.01023
2408.80432,0.00999
2406.87573,0.00976
2404.94715,0.00956
2403.01856,0.00935
2401.08997,0.00910
2399.16139,0.00887
2397.23280,0.00865
2395.30421,0.00842
2393.37563,0.00824
2391.44704,0.00808
2389.51846,0.00792
2387.58987,0.00775
2385.66128,0.00753
2383.73270,0.00735
2381.80411,0.00715
2379.87552,0.00705
2377.94694,0.00704
2376.01835,0.00687
2374.08976,0.00668
2372.16118,0.00655
2370.23259,0.00633
2368.30401,0.00606
2366.37542,0.00581
2364.44683,0.00562
2362.51825,0.00547
2360.58966,0.00535
2358.66107,0.00512
2356.73249,0.00487
2354.80390,0.00467
2352.87532,0.00441
2350.94673,0.00435
2349.01814,0.00462
2347.08956,0.00484
2345.16097,0.00473
2343.23238,0.00454
2341.30380,0.00449
2339.37521,0.00446
2337.44662,0.00431
2335.51804,0.00413
2333.58945,0.00397
2331.66087,0.00380
2329.73228,0.00369
2327.80369,0.00358
2325.87511,0.00346
2323.94652,0.00337
2322.01793,0.00323
2320.08935,0.00309
2318.16076,0.00306
2316.23217,0.00307
2314.30359,0.00296
2312.37500,0.00284
2310.44642,0.00282
2308.51783,0.00276
2306.58924,0.00264
2304.66066,0.00252
2302.73207,0.00238
2300.80348,0.00222
2298.87490,0.00217
2296.94631,0.00221
2295.01773,0.00213
2293.08914,0.00199
2291.16055,0.00193
2289.23197,0.00186
2287.30338,0.00174
2285.37479,0.00169
2283.44621,0.00163
2281.51762,0.00152
2279.58903,0.00150
2277.66045,0.00146
2275.73186,0.00133
2273.80328,0.00127
2271.87469,0.00123
2269.94610,0.00110
2268.01752,0.00102
2266.08893,0.00105
2264.16034,0.00103
2262.23176,0.00094
2260.30317,0.00087
2258.37459,0.00090
2256.44600,0.00089
2254.51741,0.00078
2252.58883,0.00077
2250.66024,0.00079
2248.73165,0.00074
2246.80307,0.00067
2244.87448,0.00064
2242.94589,0.00062
2241.01731,0.00058
2239.08872,0.00056
2237.16014,0.00051
2235.23155,0.00047
2233.30296,0.00043
2231.37438,0.00038
2229.44579,0.00037
2227.51720,0.00038
2225.58862,0.00040
2223.66003,0.00038
2221.73145,0.00038
2219.80286,0.00035
2217.87427,0.00020
2215.94569,0.00013
2214.01710,0.00016
2212.08851,0.00017
2210.15993,0.00005
2208.23134,-0.00004
2206.30275,0.00002
2204.37417,0.00009
2202.44558,0.00009
2200.51700,0.00003
2198.58841,0.00000
2196.65982,0.00005
2194.73124,0.00015
2192.80265,0.00016
2190.87406,0.00016
2188.94548,0.00018
2187.01689,0.00017
2185.08830,0.00023
2183.15972,0.00029
2181.23113,0.00022
2179.30255,0.00018
2177.37396,0.00025
2175.44537,0.00024
2173.51679,0.00016
2171.58820,0.00009
2169.65961,0.00000
2167.73103,0.00008
2165.80244,0.00033
2163.87386,0.00041
2161.94527,0.00042
2160.01668,0.00043
2158.08810,0.00046
2156.15951,0.00050
2154.23092,0.00045
2152.30234,0.00042
2150.37375,0.00042
2148.44516,0.00045
2146.51658,0.00052
2144.58799,0.00054
2142.65941,0.00049
2140.73082,0.00042
2138.80223,0.00047
2136.87365,0.00056
2134.94506,0.00055
2133.01647,0.00050
2131.08789,0.00043
2129.15930,0.00039
2127.23072,0.00036
2125.30213,0.00028
2123.37354,0.00024
2121.44496,0.00029
2119.51637,0.00030
2117.58778,0.00026
2115.65920,0.00017
2113.73061,0.00012
2111.80202,0.00012
2109.87344,0.00016
2107.94485,0.00018
2106.01627,0.00009
2104.08768,0.00007
2102.15909,0.00013
2100.23051,0.00011
2098.30192,0.00010
2096.37333,0.00009
2094.44475,0.00001
2092.51616,0.00000
2090.58758,0.00006
2088.65899,0.00008
2086.73040,0.00006
2084.80182,0.00004
2082.87323,-0.00002
2080.94464,0.00000
2079.01606,0.00011
2077.08747,0.00018
2075.15888,0.00020
2073.23030,0.00013
2071.30171,0.00000
2069.37313,-0.00008
2067.44454,-0.00006
2065.51595,-0.00006
2063.58737,-0.00018
2061.65878,-0.00020
2059.73019,-0.00005
2057.80161,0.00006
2055.87302,0.00007
2053.94443,0.00006
2052.01585,0.00007
2050.08726,0.00012
2048.15868,0.00026
2046.23009,0.00038
2044.30150,0.00048
2042.37292,0.00067
2040.44433,0.00089
2038.51574,0.00110
2036.58716,0.00138
2034.65857,0.00168
2032.72999,0.00188
2030.80140,0.00199
2028.87281,0.00208
2026.94423,0.00218
2025.01564,0.00220
2023.08705,0.00217
2021.15847,0.00224
2019.22988,0.00239
2017.30129,0.00247
2015.37271,0.00252
2013.44412,0.00268
2011.51554,0.00296
2009.58695,0.00322
2007.65836,0.00338
2005.72978,0.00359
2003.80119,0.00375
2001.87260,0.00375
1999.94402,0.00379
1998.01543,0.00382
1996.08685,0.00380
1994.15826,0.00385
1992.22967,0.00378
1990.30109,0.00361
1988.37250,0.00347
1986.44391,0.00334
1984.51533,0.00322
1982.58674,0.00318
1980.65815,0.00311
1978.72957,0.00296
1976.80098,0.00283
1974.87240,0.00277
1972.94381,0.00273
1971.01522,0.00256
1969.08664,0.00231
1967.15805,0.00210
1965.22946,0.00183
1963.30088,0.00158
1961.37229,0.00136
1959.44371,0.00119
1957.51512,0.00103
1955.58653,0.00087
1953.65795,0.00087
1951.72936,0.00081
1949.80077,0.00069
1947.87219,0.00062
1945.94360,0.00051
1944.01501,0.00040
1942.08643,0.00022
1940.15784,0.00009
1938.22926,0.00010
1936.30067,0.00010
1934.37208,0.00006
1932.44350,-0.00004
1930.51491,-0.00008
1928.58632,-0.00006
1926.65774,-0.00008
1924.72915,0.00000
1922.80056,0.00001
1920.87198,0.00011
1918.94339,0.00029
1917.01481,0.00035
1915.08622,0.00066
1913.15763,0.00115
1911.22905,0.00162
1909.30046,0.00218
1907.37187,0.00271
1905.44329,0.00332
1903.51470,0.00405
1901.58612,0.00469
1899.65753,0.00521
1897.72894,0.00576
1895.80036,0.00638
1893.87177,0.00691
1891.94318,0.00756
1890.01460,0.00812
1888.08601,0.00838
1886.15742,0.00873
1884.22884,0.00902
1882.30025,0.00923
1880.37167,0.00940
1878.44308,0.00947
1876.51449,0.00966
1874.58591,0.00982
1872.65732,0.00994
1870.72873,0.01004
1868.80015,0.00982
1866.87156,0.00930
1864.94298,0.00888
1863.01439,0.00835
1861.08580,0.00764
1859.15722,0.00690
1857.22863,0.00591
1855.30004,0.00499
1853.37146,0.00412
1851.44287,0.00323
1849.51428,0.00239
1847.58570,0.00173
1845.65711,0.00137
1843.72853,0.00058
1841.79994,0.00000
1839.87135,-0.00021
1837.94277,-0.00056
1836.01418,-0.00083
1834.08559,-0.00093
1832.15701,-0.00077
1830.22842,-0.00080
1828.29984,-0.00088
1826.37125,-0.00056
1824.44266,-0.00043
1822.51408,-0.00018
1820.58549,0.00033
1818.65690,0.00086
1816.72832,0.00139
1814.79973,0.00203
1812.87114,0.00295
1810.94256,0.00377
1809.01397,0.00449
1807.08539,0.00543
1805.15680,0.00667
1803.22821,0.00797
1801.29963,0.00920
1799.37104,0.01055
1797.44245,0.01207
1795.51387,0.01374
1793.58528,0.01547
1791.65669,0.01688
1789.72811,0.01832
1787.79952,0.02035
1785.87094,0.02233
1783.94235,0.02423
1782.01376,0.02622
1780.08518,0.02799
1778.15659,0.02977
1776.22800,0.03163
1774.29942,0.03364
1772.37083,0.03512
1770.44225,0.03634
1768.51366,0.03814
1766.58507,0.03972
1764.65649,0.04160
1762.72790,0.04357
1760.79931,0.04521
1758.87073,0.04746
1756.94214,0.04987
1755.01355,0.05249
1753.08497,0.05553
1751.15638,0.05862
1749.22780,0.06180
1747.29921,0.06546
1745.37062,0.06945
1743.44204,0.07363
1741.51345,0.07812
1739.58486,0.08227
1737.65628,0.08613
1735.72769,0.09011
1733.79911,0.09286
1731.87052,0.09499
1729.94193,0.09780
1728.01335,0.10034
1726.08476,0.10293
1724.15617,0.10554
1722.22759,0.10814
1720.29900,0.11130
1718.37041,0.11405
1716.44183,0.11606
1714.51324,0.11817
1712.58466,0.12052
1710.65607,0.12271
1708.72748,0.12475
1706.79890,0.12680
1704.87031,0.12853
1702.94172,0.13106
1701.01314,0.13368
1699.08455,0.13534
1697.15596,0.13809
1695.22738,0.14039
1693.29879,0.14246
1691.37021,0.14570
1689.44162,0.14842
1687.51303,0.15150
1685.58445,0.15470
1683.65586,0.15663
1681.72727,0.15910
1679.79869,0.16211
1677.87010,0.16524
1675.94152,0.16803
1674.01293,0.17034
1672.08434,0.17312
1670.15576,0.17548
1668.22717,0.17723
1666.29858,0.17927
1664.37000,0.18138
1662.44141,0.18268
1660.51282,0.18365
1658.58424,0.18457
1656.65565,0.18544
1654.72707,0.18654
1652.79848,0.18512
1650.86989,0.18357
1648.94131,0.18418
1647.01272,0.18372
1645.08413,0.18247
1643.15555,0.18200
1641.22696,0.18200
1639.29838,0.18210
1637.36979,0.18236
1635.44120,0.18169
1633.51262,0.18073
1631.58403,0.18083
1629.65544,0.18025
1627.72686,0.17900
1625.79827,0.17746
1623.86968,0.17555
1621.94110,0.17317
1620.01251,0.17105
1618.08393,0.16938
1616.15534,0.16642
1614.22675,0.16396
1612.29817,0.16228
1610.36958,0.16043
1608.44099,0.15857
1606.51241,0.15651
1604.58382,0.15462
1602.65524,0.15272
1600.72665,0.15109
1598.79806,0.14938
1596.86948,0.14764
1594.94089,0.14604
1593.01230,0.14430
1591.08372,0.14258
1589.15513,0.14079
1587.22654,0.13912
1585.29796,0.13730
1583.36937,0.13554
1581.44079,0.13377
1579.51220,0.13245
1577.58361,0.13160
1575.65503,0.12958
1573.72644,0.12805
1571.79785,0.12784
1569.86927,0.12736
1567.94068,0.12670
1566.01209,0.12657
1564.08351,0.12649
1562.15492,0.12710
1560.22634,0.12795
1558.29775,0.12686
1556.36916,0.12669
1554.44058,0.12741
1552.51199,0.12742
1550.58340,0.12766
1548.65482,0.12762
1546.72623,0.12764
1544.79765,0.12739
1542.86906,0.12703
1540.94047,0.12679
1539.01189,0.12494
1537.08330,0.12393
1535.15471,0.12378
1533.22613,0.12263
1531.29754,0.12126
1529.36895,0.12039
1527.44037,0.11933
1525.51178,0.11782
1523.58320,0.11701
1521.65461,0.11611
1519.72602,0.11495
1517.79744,0.11442
1515.86885,0.11318
1513.94026,0.11118
1512.01168,0.10868
1510.08309,0.10615
1508.15451,0.10391
1506.22592,0.09985
1504.29733,0.09559
1502.36875,0.09291
1500.44016,0.09003
1498.51157,0.08687
1496.58299,0.08353
1494.65440,0.08027
1492.72581,0.07806
1490.79723,0.07606
1488.86864,0.07406
1486.94006,0.07255
1485.01147,0.07158
1483.08288,0.07142
1481.15430,0.07176
1479.22571,0.07286
1477.29712,0.07499
1475.36854,0.07812
1473.43995,0.08258
1471.51137,0.08792
1469.58278,0.09359
1467.65419,0.09851
1465.72561,0.10091
1463.79702,0.10150
1461.86843,0.10192
1459.93985,0.10274
1458.01126,0.10365
1456.08267,0.10355
1454.15409,0.10339
1452.22550,0.10347
1450.29692,0.10328
1448.36833,0.10299
1446.43974,0.10243
1444.51116,0.10211
1442.58257,0.10193
1440.65398,0.10178
1438.72540,0.10195
1436.79681,0.10164
1434.86822,0.10105
1432.93964,0.10098
1431.01105,0.10086
1429.08247,0.10050
1427.15388,0.10035
1425.22529,0.10030
1423.29671,0.10040
1421.36812,0.10090
1419.43953,0.10096
1417.51095,0.10051
1415.58236,0.10043
1413.65378,0.10020
1411.72519,0.09978
1409.79660,0.09939
1407.86802,0.09896
1405.93943,0.09833
1404.01084,0.09725
1402.08226,0.09643
1400.15367,0.09573
1398.22508,0.09469
1396.29650,0.09378
1394.36791,0.09293
1392.43933,0.09236
1390.51074,0.09238
1388.58215,0.09244
1386.65357,0.09218
1384.72498,0.09217
1382.79639,0.09267
1380.86781,0.09324
1378.93922,0.09352
1377.01064,0.09337
1375.08205,0.09270
1373.15346,0.09146
1371.22488,0.09012
1369.29629,0.08880
1367.36770,0.08736
1365.43912,0.08608
1363.51053,0.08466
1361.58194,0.08324
1359.65336,0.08224
1357.72477,0.08125
1355.79619,0.08021
1353.86760,0.07936
1351.93901,0.07870
1350.01043,0.07790
1348.08184,0.07704
1346.15325,0.07647
1344.22467,0.07602
1342.29608,0.07550
1340.36750,0.07491
1338.43891,0.07416
1336.51032,0.07347
1334.58174,0.07301
1332.65315,0.07273
1330.72456,0.07239
1328.79598,0.07200
1326.86739,0.07176
1324.93880,0.07146
1323.01022,0.07100
1321.08163,0.07065
1319.15305,0.07039
1317.22446,0.07017
1315.29587,0.06993
1313.36729,0.06958
1311.43870,0.06924
1309.51011,0.06901
1307.58153,0.06882
1305.65294,0.06856
1303.72435,0.06834
1301.79577,0.06813
1299.86718,0.06802
1297.93860,0.06817
1296.01001,0.06840
1294.08142,0.06863
1292.15284,0.06912
1290.22425,0.06997
1288.29566,0.07095
1286.36708,0.07208
1284.43849,0.07346
1282.50991,0.07479
1280.58132,0.07613
1278.65273,0.07752
1276.72415,0.07889
1274.79556,0.08049
1272.86697,0.08224
1270.93839,0.08397
1269.00980,0.08587
1267.08121,0.08803
1265.15263,0.09029
1263.22404,0.09280
1261.29546,0.09561
1259.36687,0.09875
1257.43828,0.10254
1255.50970,0.10691
1253.58111,0.11153
1251.65252,0.11633
1249.72394,0.12128
1247.79535,0.12609
1245.86677,0.13067
1243.93818,0.13505
1242.00959,0.13896
1240.08101,0.14250
1238.15242,0.14571
1236.22383,0.14861
1234.29525,0.15148
1232.36666,0.15405
1230.43807,0.15625
1228.50949,0.15842
1226.58090,0.16064
1224.65232,0.16275
1222.72373,0.16455
1220.79514,0.16650
1218.86656,0.16866
1216.93797,0.17062
1215.00938,0.17255
1213.08080,0.17459
1211.15221,0.17677
1209.22363,0.17892
1207.29504,0.18092
1205.36645,0.18307
1203.43787,0.18516
1201.50928,0.18699
1199.58069,0.18880
1197.65211,0.19048
1195.72352,0.19204
1193.79493,0.19377
1191.86635,0.19557
1189.93776,0.19705
1188.00918,0.19820
1186.08059,0.19954
1184.15200,0.20138
1182.22342,0.20334
1180.29483,0.20535
1178.36624,0.20765
1176.43766,0.20992
1174.50907,0.21212
1172.58048,0.21461
1170.65190,0.21727
1168.72331,0.22007
1166.79473,0.22303
1164.86614,0.22593
1162.93755,0.22840
1161.00897,0.22994
1159.08038,0.23050
1157.15179,0.23097
1155.22321,0.23185
1153.29462,0.23287
1151.36604,0.23402
1149.43745,0.23558
1147.50886,0.23724
1145.58028,0.23887
1143.65169,0.24090
1141.72310,0.24342
1139.79452,0.24636
1137.86593,0.24965
1135.93734,0.25295
1134.00876,0.25606
1132.08017,0.25907
1130.15159,0.26250
1128.22300,0.26668
1126.29441,0.27131
1124.36583,0.27572
1122.43724,0.28011
1120.50865,0.28509
1118.58007,0.29020
1116.65148,0.29522
1114.72290,0.30068
1112.79431,0.30645
1110.86572,0.31202
1108.93714,0.31738
1107.00855,0.32242
1105.07996,0.32707
1103.15138,0.33120
1101.22279,0.33424
1099.29420,0.33664
1097.36562,0.33870
1095.43703,0.34030
1093.50845,0.34124
1091.57986,0.34136
1089.65127,0.34160
1087.72269,0.34159
1085.79410,0.34125
1083.86551,0.34109
1081.93693,0.34037
1080.00834,0.33937
1078.07976,0.33843
1076.15117,0.33726
1074.22258,0.33602
1072.29400,0.33553
1070.36541,0.33581
1068.43682,0.33592
1066.50824,0.33578
1064.57965,0.33539
1062.65106,0.33504
1060.72248,0.33454
1058.79389,0.33305
1056.86531,0.33113
1054.93672,0.32925
1053.00813,0.32743
1051.07955,0.32600
1049.15096,0.32480
1047.22237,0.32405
1045.29379,0.32442
1043.36520,0.32556
1041.43661,0.32677
1039.50803,0.32789
1037.57944,0.32879
1035.65086,0.32935
1033.72227,0.32976
1031.79368,0.32961
1029.86510,0.32818
1027.93651,0.32596
1026.00792,0.32350
1024.07934,0.32096
1022.15075,0.31823
1020.22217,0.31546
1018.29358,0.31300
1016.36499,0.31028
1014.43641,0.30763
1012.50782,0.30522
1010.57923,0.30264
1008.65065,0.30022
1006.72206,0.29738
1004.79347,0.29397
1002.86489,0.29043
1000.93630,0.28661
999.00772,0.28228
997.07913,0.27774
995.15054,0.27325
993.22196,0.26860
991.29337,0.26369
989.36478,0.25815
987.43620,0.25252
985.50761,0.24721
983.57903,0.24100
981.65044,0.23346
979.72185,0.22528
977.79327,0.21687
975.86468,0.20845
973.93609,0.19996
972.00751,0.19104
970.07892,0.18227
968.15033,0.17442
966.22175,0.16669
964.29316,0.15894
962.36458,0.15211
960.43599,0.14624
958.50740,0.14083
956.57882,0.13577
954.65023,0.13135
952.72164,0.12772
950.79306,0.12480
948.86447,0.12214
946.93589,0.11961
945.00730,0.11749
943.07871,0.11579
941.15013,0.11440
939.22154,0.11314
937.29295,0.11188
935.36437,0.11040
933.43578,0.10868
931.50719,0.10700
929.57861,0.10549
927.65002,0.10436
925.72144,0.10356
923.79285,0.10284
921.86426,0.10215
919.93568,0.10169
918.00709,0.10164
916.07850,0.10129
914.14992,0.10030
912.22133,0.09866
910.29274,0.09574
908.36416,0.09160
906.43557,0.08665
904.50699,0.08106
902.57840,0.07517
900.64981,0.06924
898.72123,0.06356
896.79264,0.05827
894.86405,0.05341
892.93547,0.04923
891.00688,0.04555
889.07830,0.04223
887.14971,0.03918
885.22112,0.03596
883.29254,0.03282
881.36395,0.02999
879.43536,0.02699
877.50678,0.02396
875.57819,0.02105
873.64960,0.01832
871.72102,0.01592
869.79243,0.01339
867.86385,0.01072
865.93526,0.00831
864.00667,0.00606
862.07809,0.00407
860.14950,0.00266
858.22091,0.00149
856.29233,0.00049
854.36374,0.00000
852.43516,-0.00017
850.50657,0.00027
848.57798,0.00124
846.64940,0.00237
844.72081,0.00417
842.79222,0.00663
840.86364,0.00931
838.93505,0.01256
837.00646,0.01625
835.07788,0.01958
833.14929,0.02240
831.22071,0.02468
829.29212,0.02619
827.36353,0.02730
825.43495,0.02831
823.50636,0.02903
821.57777,0.02965
819.64919,0.03066
817.72060,0.03193
815.79201,0.03358
813.86343,0.03631
811.93484,0.03992
810.00626,0.04455
808.07767,0.05092
806.14908,0.05899
804.22050,0.06705
802.29191,0.07255
800.36332,0.07510
798.43474,0.07452
796.50615,0.07096
794.57757,0.06622
792.64898,0.06145
790.72039,0.05737
788.79181,0.05430
786.86322,0.05273
784.93463,0.05315
783.00605,0.05503
781.07746,0.05647
779.14887,0.05509
777.22029,0.05105
775.29170,0.04568
773.36312,0.03969
771.43453,0.03427
769.50594,0.03055
767.57736,0.02834
765.64877,0.02688
763.72018,0.02659
761.79160,0.02689
759.86301,0.02656
757.93443,0.02616
756.00584,0.02605
754.07725,0.02590
752.14867,0.02550
750.22008,0.02478
748.29149,0.02314
746.36291,0.02104
744.43432,0.01955
742.50573,0.01759
740.57715,0.01504
738.64856,0.01229
736.71998,0.00948
734.79139,0.00801
732.86280,0.00719
730.93422,0.00628
729.00563,0.00592
727.07704,0.00642
725.14846,0.00751
723.21987,0.00777
721.29129,0.00707
719.36270,0.00608
717.43411,0.00453
715.50553,0.00291
713.57694,0.00244
711.64835,0.00278
709.71977,0.00323
707.79118,0.00435
705.86259,0.00625
703.93401,0.00876
702.00542,0.01128
700.07684,0.01542
698.14825,0.02176
696.21966,0.02594
694.29108,0.02626
692.36249,0.02318
690.43390,0.01832
688.50532,0.01420
686.57673,0.01086
684.64814,0.00895
682.71956,0.00775
680.79097,0.00636
678.86239,0.00520
676.93380,0.00424
675.00521,0.00397
673.07663,0.00378
671.14804,0.00342
669.21945,0.00241
667.29087,0.00139
665.36228,0.00175
663.43370,0.00180
661.50511,0.00074
659.57652,0.00000
657.64794,0.00040
655.71935,0.00029
653.79076,-0.00007
651.86218,0.00083
649.93359,0.00122
648.00500,0.00127
646.07642,0.00176
644.14783,0.00241
642.21925,0.00240
640.29066,0.00197
638.36207,0.00253
636.43349,0.00291
634.50490,0.00289
632.57631,0.00305
630.64773,0.00318
628.71914,0.00347
626.79056,0.00423
624.86197,0.00514
622.93338,0.00538
621.00480,0.00579
619.07621,0.00632
617.14762,0.00757
615.21904,0.00980
613.29045,0.01009
611.36186,0.00868
609.43328,0.00810
607.50469,0.00945
605.57611,0.01189
603.64752,0.01301
601.71893,0.01409
599.79035,0.01670
597.86176,0.01785
595.93317,0.01858
594.00459,0.02180
592.07600,0.02528
590.14742,0.02817
588.21883,0.03042
586.29024,0.03257
584.36166,0.03539
582.43307,0.03849
580.50448,0.04359
578.57590,0.04820
576.64731,0.05128
574.71872,0.05544
572.79014,0.05894
570.86155,0.06145
568.93297,0.06546
567.00438,0.07108
565.07579,0.07589
563.14721,0.08081
561.21862,0.08680
559.29003,0.09097
557.36145,0.09248
555.43286,0.09403
553.50427,0.09852
551.57569,0.10338
549.64710,0.10778
547.71852,0.11311
545.78993,0.11723
543.86134,0.12148
541.93276,0.12731
540.00417,0.13359
538.07558,0.13903
536.14700,0.14362
534.21841,0.14709
532.28983,0.14793
530.36124,0.14883
528.43265,0.15079
526.50407,0.15123
524.57548,0.14911
522.64689,0.14598
520.71831,0.14414
518.78972,0.14207
516.86113,0.13638
514.93255,0.12978
513.00396,0.12609
511.07538,0.12168
509.14679,0.11730
507.21820,0.11659
505.28962,0.11720
503.36103,0.11915
501.43244,0.12025
499.50386,0.11996
497.57527,0.12300
495.64669,0.12825
493.71810,0.13694
491.78951,0.14950
489.86093,0.15930
487.93234,0.16823
486.00375,0.18103
484.07517,0.19356
482.14658,0.20093
480.21799,0.20578
478.28941,0.21324
476.36082,0.22081
474.43224,0.22575
472.50365,0.22809
470.57506,0.22992
468.64648,0.23144
466.71789,0.22386
464.78930,0.20794
462.86072,0.19468
460.93213,0.18903
459.00355,0.18348
457.07496,0.17148
455.14637,0.15397
453.21779,0.13459
451.28920,0.12400
449.36061,0.12143
447.43203,0.11670
445.50344,0.10852
443.57485,0.10002
441.64627,0.09467
439.71768,0.09462
437.78910,0.09595
435.86051,0.09363
433.93192,0.09263
432.00334,0.09097
430.07475,0.08645
428.14616,0.08457
426.21758,0.08218
424.28899,0.07783
422.36040,0.07196
420.43182,0.06348
418.50323,0.05091
416.57465,0.04205
414.64606,0.03540
412.71747,0.02575
410.78889,0.01753
408.86030,0.00862
406.93171,0.00412
405.00313,0.00000
403.07454,-0.00255
401.14596,0.00106
399.21737,0.00000
