3747.24323,0.00000
3745.31464,0.00057
3743.38605,0.00103
3741.45747,0.00142
3739.52888,0.00183
3737.60030,0.00229
3735.67171,0.00297
3733.74312,0.00349
3731.81454,0.00408
3729.88595,0.00459
3727.95736,0.00524
3726.02878,0.00626
3724.10019,0.00748
3722.17161,0.00894
3720.24302,0.01051
3718.31443,0.01256
3716.38585,0.01498
3714.45726,0.01773
3712.52867,0.02096
3710.60009,0.02428
3708.67150,0.02785
3706.74291,0.03144
3704.81433,0.03505
3702.88574,0.03892
3700.95716,0.04231
3699.02857,0.04480
3697.09998,0.04623
3695.17140,0.04684
3693.24281,0.04700
3691.31422,0.04757
3689.38564,0.04890
3687.45705,0.05035
3685.52846,0.05219
3683.59988,0.05474
3681.67129,0.05799
3679.74271,0.06168
3677.81412,0.06590
3675.88553,0.07077
3673.95695,0.07559
3672.02836,0.08042
3670.09977,0.08583
3668.17119,0.09109
3666.24260,0.09603
3664.31402,0.10101
3662.38543,0.10614
3660.45684,0.11134
3658.52826,0.11618
3656.59967,0.12078
3654.67108,0.12497
3652.74250,0.12884
3650.81391,0.13271
3648.88532,0.13653
3646.95674,0.14010
3645.02815,0.14338
3643.09957,0.14671
3641.17098,0.14998
3639.24239,0.15316
3637.31381,0.15640
3635.38522,0.15981
3633.45663,0.16346
3631.52805,0.16690
3629.59946,0.17000
3627.67088,0.17243
3625.74229,0.17409
3623.81370,0.17511
3621.88512,0.17565
3619.95653,0.17558
3618.02794,0.17403
3616.09936,0.17202
3614.17077,0.17030
3612.24218,0.16859
3610.31360,0.16703
3608.38501,0.16557
3606.45643,0.16414
3604.52784,0.16290
3602.59925,0.16182
3600.67067,0.16081
3598.74208,0.16004
3596.81349,0.15929
3594.88491,0.15840
3592.95632,0.15777
3591.02774,0.15740
3589.09915,0.15710
3587.17056,0.15698
3585.24198,0.15683
3583.31339,0.15678
3581.38480,0.15715
3579.45622,0.15763
3577.52763,0.15803
3575.59904,0.15863
3573.67046,0.15936
3571.74187,0.16011
3569.81329,0.16100
3567.88470,0.16191
3565.95611,0.16262
3564.02753,0.16341
3562.09894,0.16442
3560.17035,0.16547
3558.24177,0.16655
3556.31318,0.16739
3554.38459,0.16813
3552.45601,0.16926
3550.52742,0.17054
3548.59884,0.17167
3546.67025,0.17271
3544.74166,0.17378
3542.81308,0.17486
3540.88449,0.17582
3538.95590,0.17686
3537.02732,0.17791
3535.09873,0.17887
3533.17015,0.18000
3531.24156,0.18125
3529.31297,0.18238
3527.38439,0.18338
3525.45580,0.18434
3523.52721,0.18537
3521.59863,0.18651
3519.67004,0.18743
3517.74145,0.18836
3515.81287,0.18960
3513.88428,0.19073
3511.95570,0.19176
3510.02711,0.19289
3508.09852,0.19389
3506.16994,0.19487
3504.24135,0.19610
3502.31276,0.19732
3500.38418,0.19838
3498.45559,0.19939
3496.52701,0.20036
3494.59842,0.20134
3492.66983,0.20240
3490.74125,0.20348
3488.81266,0.20438
3486.88407,0.20532
3484.95549,0.20640
3483.02690,0.20759
3481.09831,0.20873
3479.16973,0.20946
3477.24114,0.21033
3475.31256,0.21128
3473.38397,0.21198
3471.45538,0.21293
3469.52680,0.21406
3467.59821,0.21504
3465.66962,0.21570
3463.74104,0.21642
3461.81245,0.21739
3459.88386,0.21825
3457.95528,0.21917
3456.02669,0.22011
3454.09811,0.22087
3452.16952,0.22170
3450.24093,0.22261
3448.31235,0.22332
3446.38376,0.22387
3444.45517,0.22460
3442.52659,0.22540
3440.59800,0.22615
3438.66942,0.22691
3436.74083,0.22753
3434.81224,0.22810
3432.88366,0.22865
3430.95507,0.22914
3429.02648,0.22976
3427.09790,0.23021
3425.16931,0.23066
3423.24072,0.23136
3421.31214,0.23190
3419.38355,0.23244
3417.45497,0.23298
3415.52638,0.23343
3413.59779,0.23393
3411.66921,0.23432
3409.74062,0.23461
3407.81203,0.23504
3405.88345,0.23561
3403.95486,0.23583
3402.02628,0.23595
3400.09769,0.23630
3398.16910,0.23666
3396.24052,0.23693
3394.31193,0.23704
3392.38334,0.23728
3390.45476,0.23757
3388.52617,0.23777
3386.59758,0.23786
3384.66900,0.23790
3382.74041,0.23827
3380.81183,0.23859
3378.88324,0.23870
3376.95465,0.23877
3375.02607,0.23893
3373.09748,0.23923
3371.16889,0.23934
3369.24031,0.23940
3367.31172,0.23954
3365.38314,0.23964
3363.45455,0.23966
3361.52596,0.23970
3359.59738,0.23984
3357.66879,0.24001
3355.74020,0.24017
3353.81162,0.24023
3351.88303,0.24021
3349.95444,0.24018
3348.02586,0.24019
3346.09727,0.24023
3344.16869,0.24019
3342.24010,0.24023
3340.31151,0.24020
3338.38293,0.24004
3336.45434,0.24011
3334.52575,0.24031
3332.59717,0.24030
3330.66858,0.24021
3328.73999,0.24019
3326.81141,0.24006
3324.88282,0.23983
3322.95424,0.23972
3321.02565,0.23976
3319.09706,0.23975
3317.16848,0.23963
3315.23989,0.23936
3313.31130,0.23902
3311.38272,0.23896
3309.45413,0.23900
3307.52555,0.23882
3305.59696,0.23860
3303.66837,0.23840
3301.73979,0.23815
3299.81120,0.23783
3297.88261,0.23752
3295.95403,0.23730
3294.02544,0.23715
3292.09685,0.23688
3290.16827,0.23639
3288.23968,0.23582
3286.31110,0.23521
3284.38251,0.23478
3282.45392,0.23448
3280.52534,0.23394
3278.59675,0.23326
3276.66816,0.23259
3274.73958,0.23194
3272.81099,0.23125
3270.88241,0.23042
3268.95382,0.22957
3267.02523,0.22868
3265.09665,0.22770
3263.16806,0.22667
3261.23947,0.22577
3259.31089,0.22488
3257.38230,0.22385
3255.45371,0.22297
3253.52513,0.22199
3251.59654,0.22088
3249.66796,0.21997
3247.73937,0.21905
3245.81078,0.21808
3243.88220,0.21712
3241.95361,0.21609
3240.02502,0.21518
3238.09644,0.21441
3236.16785,0.21365
3234.23927,0.21271
3232.31068,0.21167
3230.38209,0.21074
3228.45351,0.21003
3226.52492,0.20922
3224.59633,0.20835
3222.66775,0.20760
3220.73916,0.20665
3218.81057,0.20572
3216.88199,0.20491
3214.95340,0.20411
3213.02482,0.20328
3211.09623,0.20229
3209.16764,0.20154
3207.23906,0.20078
3205.31047,0.19975
3203.38188,0.19884
3201.45330,0.19794
3199.52471,0.19705
3197.59612,0.19613
3195.66754,0.19513
3193.73895,0.19426
3191.81037,0.19343
3189.88178,0.19246
3187.95319,0.19146
3186.02461,0.19052
3184.09602,0.18961
3182.16743,0.18868
3180.23885,0.18776
3178.31026,0.18690
3176.38168,0.18594
3174.45309,0.18493
3172.52450,0.18403
3170.59592,0.18299
3168.66733,0.18188
3166.73874,0.18089
3164.81016,0.17993
3162.88157,0.17904
3160.95298,0.17822
3159.02440,0.17736
3157.09581,0.17643
3155.16723,0.17550
3153.23864,0.17462
3151.31005,0.17380
3149.38147,0.17297
3147.45288,0.17205
3145.52429,0.17123
3143.59571,0.17045
3141.66712,0.16970
3139.73854,0.16898
3137.80995,0.16823
3135.88136,0.16760
3133.95278,0.16692
3132.02419,0.16620
3130.09560,0.16561
3128.16702,0.16495
3126.23843,0.16428
3124.30984,0.16362
3122.38126,0.16309
3120.45267,0.16267
3118.52409,0.16212
3116.59550,0.16154
3114.66691,0.16106
3112.73833,0.16052
3110.80974,0.16001
3108.88115,0.15962
3106.95257,0.15903
3105.02398,0.15833
3103.09540,0.15782
3101.16681,0.15737
3099.23822,0.15694
3097.30964,0.15654
3095.38105,0.15613
3093.45246,0.15563
3091.52388,0.15519
3089.59529,0.15486
3087.66670,0.15443
3085.73812,0.15393
3083.80953,0.15338
3081.88095,0.15289
3079.95236,0.15249
3078.02377,0.15203
3076.09519,0.15142
3074.16660,0.15072
3072.23801,0.15017
3070.30943,0.14964
3068.38084,0.14905
3066.45225,0.14844
3064.52367,0.14779
3062.59508,0.14710
3060.66650,0.14637
3058.73791,0.14575
3056.80932,0.14506
3054.88074,0.14423
3052.95215,0.14355
3051.02356,0.14285
3049.09498,0.14208
3047.16639,0.14138
3045.23781,0.14076
3043.30922,0.14023
3041.38063,0.13964
3039.45205,0.13911
3037.52346,0.13861
3035.59487,0.13795
3033.66629,0.13733
3031.73770,0.13686
3029.80911,0.13642
3027.88053,0.13596
3025.95194,0.13549
3024.02336,0.13506
3022.09477,0.13461
3020.16618,0.13429
3018.23760,0.13415
3016.30901,0.13395
3014.38042,0.13386
3012.45184,0.13399
3010.52325,0.13410
3008.59467,0.13414
3006.66608,0.13433
3004.73749,0.13472
3002.80891,0.13512
3000.88032,0.13555
2998.95173,0.13613
2997.02315,0.13687
2995.09456,0.13768
2993.16597,0.13858
2991.23739,0.13951
2989.30880,0.14067
2987.38022,0.14230
2985.45163,0.14402
2983.52304,0.14577
2981.59446,0.14772
2979.66587,0.14969
2977.73728,0.15183
2975.80870,0.15422
2973.88011,0.15674
2971.95153,0.15932
2970.02294,0.16209
2968.09435,0.16518
2966.16577,0.16836
2964.23718,0.17145
2962.30859,0.17431
2960.38001,0.17695
2958.45142,0.17933
2956.52283,0.18144
2954.59425,0.18336
2952.66566,0.18508
2950.73708,0.18696
2948.80849,0.18953
2946.87990,0.19275
2944.95132,0.19653
2943.02273,0.20106
2941.09414,0.20648
2939.16556,0.21245
2937.23697,0.21861
2935.30838,0.22483
2933.37980,0.23104
2931.45121,0.23709
2929.52263,0.24272
2927.59404,0.24767
2925.66545,0.25155
2923.73687,0.25393
2921.80828,0.25469
2919.87969,0.25317
2917.95111,0.24822
2916.02252,0.23940
2914.09394,0.22795
2912.16535,0.21667
2910.23676,0.20744
2908.30818,0.20031
2906.37959,0.19469
2904.45100,0.19005
2902.52242,0.18607
2900.59383,0.18244
2898.66524,0.17904
2896.73666,0.17589
2894.80807,0.17279
2892.87949,0.16962
2890.95090,0.16653
2889.02231,0.16382
2887.09373,0.16134
2885.16514,0.15903
2883.23655,0.15727
2881.30797,0.15593
2879.37938,0.15498
2877.45080,0.15446
2875.52221,0.15423
2873.59362,0.15433
2871.66504,0.15463
2869.73645,0.15513
2867.80786,0.15605
2865.87928,0.15780
2863.95069,0.16075
2862.02210,0.16508
2860.09352,0.17094
2858.16493,0.17796
2856.23635,0.18529
2854.30776,0.19130
2852.37917,0.19398
2850.45059,0.19136
2848.52200,0.18216
2846.59341,0.16872
2844.66483,0.15514
2842.73624,0.14348
2840.80766,0.13397
2838.87907,0.12634
2836.95048,0.12042
2835.02190,0.11575
2833.09331,0.11194
2831.16472,0.10879
2829.23614,0.10608
2827.30755,0.10369
2825.37896,0.10147
2823.45038,0.09949
2821.52179,0.09779
2819.59321,0.09629
2817.66462,0.09485
2815.73603,0.09335
2813.80745,0.09208
2811.87886,0.09096
2809.95027,0.08982
2808.02169,0.08868
2806.09310,0.08754
2804.16451,0.08659
2802.23593,0.08567
2800.30734,0.08471
2798.37876,0.08379
2796.45017,0.08287
2794.52158,0.08208
2792.59300,0.08139
2790.66441,0.08071
2788.73582,0.08000
2786.80724,0.07920
2784.87865,0.07838
2782.95007,0.07762
2781.02148,0.07701
2779.09289,0.07639
2777.16431,0.07570
2775.23572,0.07507
2773.30713,0.07456
2771.37855,0.07410
2769.44996,0.07363
2767.52137,0.07311
2765.59279,0.07259
2763.66420,0.07212
2761.73562,0.07169
2759.80703,0.07122
2757.87844,0.07078
2755.94986,0.07043
2754.02127,0.07007
2752.09268,0.06970
2750.16410,0.06935
2748.23551,0.06894
2746.30693,0.06845
2744.37834,0.06805
2742.44975,0.06774
2740.52117,0.06747
2738.59258,0.06723
2736.66399,0.06688
2734.73541,0.06647
2732.80682,0.06606
2730.87823,0.06570
2728.94965,0.06537
2727.02106,0.06495
2725.09248,0.06453
2723.16389,0.06412
2721.23530,0.06367
2719.30672,0.06319
2717.37813,0.06272
2715.44954,0.06229
2713.52096,0.06187
2711.59237,0.06146
2709.66379,0.06107
2707.73520,0.06068
2705.80661,0.06023
2703.87803,0.05974
2701.94944,0.05934
2700.02085,0.05904
2698.09227,0.05871
2696.16368,0.05838
2694.23509,0.05809
2692.30651,0.05780
2690.37792,0.05755
2688.44934,0.05730
2686.52075,0.05698
2684.59216,0.05664
2682.66358,0.05632
2680.73499,0.05605
2678.80640,0.05578
2676.87782,0.05542
2674.94923,0.05500
2673.02064,0.05459
2671.09206,0.05425
2669.16347,0.05391
2667.23489,0.05354
2665.30630,0.05320
2663.37771,0.05292
2661.44913,0.05255
2659.52054,0.05218
2657.59195,0.05183
2655.66337,0.05145
2653.73478,0.05121
2651.80620,0.05097
2649.87761,0.05060
2647.94902,0.05021
2646.02044,0.04978
2644.09185,0.04942
2642.16326,0.04914
2640.23468,0.04883
2638.30609,0.04847
2636.37750,0.04816
2634.44892,0.04799
2632.52033,0.04767
2630.59175,0.04722
2628.66316,0.04686
2626.73457,0.04652
2624.80599,0.04621
2622.87740,0.04592
2620.94881,0.04558
2619.02023,0.04522
2617.09164,0.04489
2615.16306,0.04452
2613.23447,0.04409
2611.30588,0.04371
2609.37730,0.04336
2607.44871,0.04302
2605.52012,0.04274
2603.59154,0.04246
2601.66295,0.04210
2599.73436,0.04175
2597.80578,0.04137
2595.87719,0.04100
2593.94861,0.04073
2592.02002,0.04042
2590.09143,0.04007
2588.16285,0.03965
2586.23426,0.03920
2584.30567,0.03887
2582.37709,0.03860
2580.44850,0.03832
2578.51991,0.03802
2576.59133,0.03774
2574.66274,0.03744
2572.73416,0.03719
2570.80557,0.03698
2568.87698,0.03666
2566.94840,0.03631
2565.01981,0.03598
2563.09122,0.03566
2561.16264,0.03534
2559.23405,0.03510
2557.30547,0.03493
2555.37688,0.03472
2553.44829,0.03447
2551.51971,0.03420
2549.59112,0.03393
2547.66253,0.03367
2545.73395,0.03340
2543.80536,0.03327
2541.87677,0.03310
2539.94819,0.03277
2538.01960,0.03247
2536.09102,0.03225
2534.16243,0.03202
2532.23384,0.03179
2530.30526,0.03162
2528.37667,0.03137
2526.44808,0.03106
2524.51950,0.03085
2522.59091,0.03058
2520.66233,0.03026
2518.73374,0.03001
2516.80515,0.02973
2514.87657,0.02948
2512.94798,0.02933
2511.01939,0.02913
2509.09081,0.02881
2507.16222,0.02853
2505.23363,0.02822
2503.30505,0.02790
2501.37646,0.02766
2499.44788,0.02743
2497.51929,0.02723
2495.59070,0.02694
2493.66212,0.02665
2491.73353,0.02643
2489.80494,0.02617
2487.87636,0.02593
2485.94777,0.02568
2484.01919,0.02538
2482.09060,0.02510
2480.16201,0.02483
2478.23343,0.02451
2476.30484,0.02420
2474.37625,0.02390
2472.44767,0.02358
2470.51908,0.02333
2468.59049,0.02302
2466.66191,0.02271
2464.73332,0.02249
2462.80474,0.02227
2460.87615,0.02206
2458.94756,0.02179
2457.01898,0.02140
2455.09039,0.02108
2453.16180,0.02086
2451.23322,0.02054
2449.30463,0.02023
2447.37604,0.01997
2445.44746,0.01968
2443.51887,0.01943
2441.59029,0.01913
2439.66170,0.01885
2437.73311,0.01863
2435.80453,0.01841
2433.87594,0.01816
2431.94735,0.01783
2430.01877,0.01746
2428.09018,0.01715
2426.16160,0.01687
2424.23301,0.01657
2422.30442,0.01635
2420.37584,0.01611
2418.44725,0.01579
2416.51866,0.01555
2414.59008,0.01530
2412.66149,0.01503
2410.73290,0.01476
2408.80432,0.01446
2406.87573,0.01426
2404.94715,0.01401
2403.01856,0.01370
2401.08997,0.01343
2399.16139,0.01318
2397.23280,0.01294
2395.30421,0.01269
2393.37563,0.01246
2391.44704,0.01221
2389.51846,0.01190
2387.58987,0.01166
2385.66128,0.01149
2383.73270,0.01125
2381.80411,0.01098
2379.87552,0.01075
2377.94694,0.01055
2376.01835,0.01026
2374.08976,0.00992
2372.16118,0.00961
2370.23259,0.00930
2368.30401,0.00908
2366.37542,0.00883
2364.44683,0.00848
2362.51825,0.00827
2360.58966,0.00813
2358.66107,0.00795
2356.73249,0.00775
2354.80390,0.00747
2352.87532,0.00733
2350.94673,0.00740
2349.01814,0.00747
2347.08956,0.00737
2345.16097,0.00709
2343.23238,0.00689
2341.30380,0.00685
2339.37521,0.00673
2337.44662,0.00653
2335.51804,0.00628
2333.58945,0.00608
2331.66087,0.00591
2329.73228,0.00569
2327.80369,0.00553
2325.87511,0.00538
2323.94652,0.00526
2322.01793,0.00522
2320.08935,0.00512
2318.16076,0.00496
2316.23217,0.00485
2314.30359,0.00481
2312.37500,0.00473
2310.44642,0.00460
2308.51783,0.00449
2306.58924,0.00434
2304.66066,0.00426
2302.73207,0.00425
2300.80348,0.00417
2298.87490,0.00405
2296.94631,0.00395
2295.01773,0.00386
2293.08914,0.00377
2291.16055,0.00363
2289.23197,0.00351
2287.30338,0.00339
2285.37479,0.00331
2283.44621,0.00331
2281.51762,0.00328
2279.58903,0.00319
2277.66045,0.00314
2275.73186,0.00304
2273.80328,0.00292
2271.87469,0.00285
2269.94610,0.00279
2268.01752,0.00275
2266.08893,0.00272
2264.16034,0.00262
2262.23176,0.00251
2260.30317,0.00239
2258.37459,0.00236
2256.44600,0.00242
2254.51741,0.00239
2252.58883,0.00232
2250.66024,0.00231
2248.73165,0.00228
2246.80307,0.00222
2244.87448,0.00215
2242.94589,0.00208
2241.01731,0.00204
2239.08872,0.00196
2237.16014,0.00193
2235.23155,0.00190
2233.30296,0.00183
2231.37438,0.00177
2229.44579,0.00166
2227.51720,0.00159
2225.58862,0.00155
2223.66003,0.00148
2221.73145,0.00136
2219.80286,0.00124
2217.87427,0.00120
2215.94569,0.00115
2214.01710,0.00102
2212.08851,0.00087
2210.15993,0.00080
2208.23134,0.00083
2206.30275,0.00075
2204.37417,0.00068
2202.44558,0.00066
2200.51700,0.00060
2198.58841,0.00055
2196.65982,0.00050
2194.73124,0.00046
2192.80265,0.00041
2190.87406,0.00037
2188.94548,0.00036
2187.01689,0.00036
2185.08830,0.00036
2183.15972,0.00031
2181.23113,0.00027
2179.30255,0.00031
2177.37396,0.00038
2175.44537,0.00038
2173.51679,0.00032
2171.58820,0.00014
2169.65961,0.00000
2167.73103,0.00010
2165.80244,0.00021
2163.87386,0.00025
2161.94527,0.00032
2160.01668,0.00032
2158.08810,0.00027
2156.15951,0.00027
2154.23092,0.00028
2152.30234,0.00031
2150.37375,0.00029
2148.44516,0.00029
2146.51658,0.00035
2144.58799,0.00032
2142.65941,0.00028
2140.73082,0.00029
2138.80223,0.00033
2136.87365,0.00039
2134.94506,0.00034
2133.01647,0.00026
2131.08789,0.00024
2129.15930,0.00019
2127.23072,0.00017
2125.30213,0.00014
2123.37354,0.00009
2121.44496,0.00008
2119.51637,0.00006
2117.58778,0.00000
2115.65920,-0.00000
2113.73061,0.00004
2111.80202,-0.00004
2109.87344,-0.00007
2107.94485,-0.00005
2106.01627,-0.00009
2104.08768,-0.00008
2102.15909,-0.00004
2100.23051,-0.00001
2098.30192,-0.00005
2096.37333,-0.00008
2094.44475,-0.00003
2092.51616,-0.00004
2090.58758,-0.00010
2088.65899,-0.00005
2086.73040,-0.00000
2084.80182,0.00002
2082.87323,0.00002
2080.94464,0.00000
2079.01606,-0.00004
2077.08747,-0.00007
2075.15888,-0.00006
2073.23030,-0.00005
2071.30171,-0.00006
2069.37313,-0.00009
2067.44454,-0.00015
2065.51595,-0.00014
2063.58737,-0.00006
2061.65878,0.00006
2059.73019,0.00011
2057.80161,0.00010
2055.87302,0.00016
2053.94443,0.00022
2052.01585,0.00024
2050.08726,0.00034
2048.15868,0.00051
2046.23009,0.00071
2044.30150,0.00096
2042.37292,0.00119
2040.44433,0.00149
2038.51574,0.00183
2036.58716,0.00209
2034.65857,0.00231
2032.72999,0.00251
2030.80140,0.00271
2028.87281,0.00288
2026.94423,0.00294
2025.01564,0.00299
2023.08705,0.00306
2021.15847,0.00316
2019.22988,0.00330
2017.30129,0.00345
2015.37271,0.00361
2013.44412,0.00384
2011.51554,0.00411
2009.58695,0.00436
2007.65836,0.00459
2005.72978,0.00474
2003.80119,0.00479
2001.87260,0.00487
1999.94402,0.00501
1998.01543,0.00505
1996.08685,0.00504
1994.15826,0.00501
1992.22967,0.00490
1990.30109,0.00471
1988.37250,0.00456
1986.44391,0.00442
1984.51533,0.00421
1982.58674,0.00412
1980.65815,0.00411
1978.72957,0.00395
1976.80098,0.00375
1974.87240,0.00362
1972.94381,0.00348
1971.01522,0.00328
1969.08664,0.00307
1967.15805,0.00279
1965.22946,0.00245
1963.30088,0.00219
1961.37229,0.00191
1959.44371,0.00171
1957.51512,0.00156
1955.58653,0.00140
1953.65795,0.00129
1951.72936,0.00121
1949.80077,0.00116
1947.87219,0.00101
1945.94360,0.00080
1944.01501,0.00075
1942.08643,0.00067
1940.15784,0.00047
1938.22926,0.00030
1936.30067,0.00022
1934.37208,0.00012
1932.44350,0.00010
1930.51491,0.00005
1928.58632,-0.00006
1926.65774,-0.00005
1924.72915,0.00000
1922.80056,-0.00004
1920.87198,0.00000
1918.94339,0.00017
1917.01481,0.00046
1915.08622,0.00082
1913.15763,0.00124
1911.22905,0.00172
1909.30046,0.00232
1907.37187,0.00296
1905.44329,0.00358
1903.51470,0.00418
1901.58612,0.00477
1899.65753,0.00545
1897.72894,0.00613
1895.80036,0.00676
1893.87177,0.00726
1891.94318,0.00780
1890.01460,0.00839
1888.08601,0.00878
1886.15742,0.00912
1884.22884,0.00940
1882.30025,0.00962
1880.37167,0.00981
1878.44308,0.00997
1876.51449,0.01012
1874.58591,0.01016
1872.65732,0.01025
1870.72873,0.01042
1868.80015,0.01036
1866.87156,0.00993
1864.94298,0.00944
1863.01439,0.00895
1861.08580,0.00817
1859.15722,0.00726
1857.22863,0.00631
1855.30004,0.00534
1853.37146,0.00434
1851.44287,0.00344
1849.51428,0.00265
1847.58570,0.00186
1845.65711,0.00136
1843.72853,0.00083
1841.79994,0.00025
1839.87135,0.00000
1837.94277,-0.00028
1836.01418,-0.00046
1834.08559,-0.00058
1832.15701,-0.00053
1830.22842,-0.00036
1828.29984,-0.00024
1826.37125,-0.00000
1824.44266,0.00021
1822.51408,0.00043
1820.58549,0.00084
1818.65690,0.00132
1816.72832,0.00182
1814.79973,0.00245
1812.87114,0.00322
1810.94256,0.00408
1809.01397,0.00492
1807.08539,0.00588
1805.15680,0.00701
1803.22821,0.00823
1801.29963,0.00962
1799.37104,0.01103
1797.44245,0.01249
1795.51387,0.01412
1793.58528,0.01589
1791.65669,0.01765
1789.72811,0.01918
1787.79952,0.02091
1785.87094,0.02279
1783.94235,0.02464
1782.01376,0.02667
1780.08518,0.02869
1778.15659,0.03056
1776.22800,0.03232
1774.29942,0.03424
1772.37083,0.03611
1770.44225,0.03771
1768.51366,0.03944
1766.58507,0.04124
1764.65649,0.04315
1762.72790,0.04517
1760.79931,0.04720
1758.87073,0.04948
1756.94214,0.05216
1755.01355,0.05505
1753.08497,0.05830
1751.15638,0.06197
1749.22780,0.06570
1747.29921,0.06971
1745.37062,0.07405
1743.44204,0.07872
1741.51345,0.08356
1739.58486,0.08818
1737.65628,0.09237
1735.72769,0.09631
1733.79911,0.10003
1731.87052,0.10287
1729.94193,0.10556
1728.01335,0.10835
1726.08476,0.11119
1724.15617,0.11427
1722.22759,0.11725
1720.29900,0.12048
1718.37041,0.12384
1716.44183,0.12672
1714.51324,0.12916
1712.58466,0.13150
1710.65607,0.13384
1708.72748,0.13609
1706.79890,0.13848
1704.87031,0.14076
1702.94172,0.14322
1701.01314,0.14625
1699.08455,0.14924
1697.15596,0.15227
1695.22738,0.15536
1693.29879,0.15826
1691.37021,0.16138
1689.44162,0.16456
1687.51303,0.16772
1685.58445,0.17129
1683.65586,0.17470
1681.72727,0.17780
1679.79869,0.18095
1677.87010,0.18421
1675.94152,0.18754
1674.01293,0.19039
1672.08434,0.19307
1670.15576,0.19572
1668.22717,0.19806
1666.29858,0.19995
1664.37000,0.20175
1662.44141,0.20331
1660.51282,0.20425
1658.58424,0.20511
1656.65565,0.20576
1654.72707,0.20645
1652.79848,0.20628
1650.86989,0.20530
1648.94131,0.20497
1647.01272,0.20445
1645.08413,0.20363
1643.15555,0.20290
1641.22696,0.20257
1639.29838,0.20246
1637.36979,0.20245
1635.44120,0.20230
1633.51262,0.20157
1631.58403,0.20087
1629.65544,0.19981
1627.72686,0.19827
1625.79827,0.19634
1623.86968,0.19406
1621.94110,0.19146
1620.01251,0.18895
1618.08393,0.18678
1616.15534,0.18398
1614.22675,0.18129
1612.29817,0.17883
1610.36958,0.17632
1608.44099,0.17411
1606.51241,0.17215
1604.58382,0.17027
1602.65524,0.16816
1600.72665,0.16622
1598.79806,0.16419
1596.86948,0.16221
1594.94089,0.16023
1593.01230,0.15800
1591.08372,0.15593
1589.15513,0.15383
1587.22654,0.15184
1585.29796,0.14980
1583.36937,0.14785
1581.44079,0.14581
1579.51220,0.14398
1577.58361,0.14287
1575.65503,0.14138
1573.72644,0.13987
1571.79785,0.13917
1569.86927,0.13876
1567.94068,0.13824
1566.01209,0.13796
1564.08351,0.13796
1562.15492,0.13832
1560.22634,0.13919
1558.29775,0.13949
1556.36916,0.13950
1554.44058,0.13993
1552.51199,0.14022
1550.58340,0.14046
1548.65482,0.14060
1546.72623,0.14065
1544.79765,0.14063
1542.86906,0.14046
1540.94047,0.14013
1539.01189,0.13906
1537.08330,0.13794
1535.15471,0.13723
1533.22613,0.13624
1531.29754,0.13483
1529.36895,0.13356
1527.44037,0.13245
1525.51178,0.13115
1523.58320,0.13011
1521.65461,0.12927
1519.72602,0.12823
1517.79744,0.12732
1515.86885,0.12601
1513.94026,0.12365
1512.01168,0.12053
1510.08309,0.11735
1508.15451,0.11435
1506.22592,0.11049
1504.29733,0.10609
1502.36875,0.10229
1500.44016,0.09880
1498.51157,0.09541
1496.58299,0.09185
1494.65440,0.08825
1492.72581,0.08544
1490.79723,0.08312
1488.86864,0.08102
1486.94006,0.07936
1485.01147,0.07826
1483.08288,0.07798
1481.15430,0.07840
1479.22571,0.07963
1477.29712,0.08195
1475.36854,0.08543
1473.43995,0.09048
1471.51137,0.09683
1469.58278,0.10324
1467.65419,0.10856
1465.72561,0.11155
1463.79702,0.11264
1461.86843,0.11318
1459.93985,0.11405
1458.01126,0.11543
1456.08267,0.11605
1454.15409,0.11568
1452.22550,0.11516
1450.29692,0.11484
1448.36833,0.11462
1446.43974,0.11422
1444.51116,0.11391
1442.58257,0.11366
1440.65398,0.11344
1438.72540,0.11350
1436.79681,0.11341
1434.86822,0.11298
1432.93964,0.11275
1431.01105,0.11256
1429.08247,0.11230
1427.15388,0.11229
1425.22529,0.11235
1423.29671,0.11253
1421.36812,0.11305
1419.43953,0.11345
1417.51095,0.11346
1415.58236,0.11346
1413.65378,0.11334
1411.72519,0.11313
1409.79660,0.11312
1407.86802,0.11291
1405.93943,0.11250
1404.01084,0.11190
1402.08226,0.11108
1400.15367,0.11018
1398.22508,0.10901
1396.29650,0.10779
1394.36791,0.10668
1392.43933,0.10574
1390.51074,0.10516
1388.58215,0.10486
1386.65357,0.10439
1384.72498,0.10394
1382.79639,0.10436
1380.86781,0.10521
1378.93922,0.10562
1377.01064,0.10537
1375.08205,0.10443
1373.15346,0.10310
1371.22488,0.10163
1369.29629,0.10002
1367.36770,0.09837
1365.43912,0.09683
1363.51053,0.09527
1361.58194,0.09370
1359.65336,0.09232
1357.72477,0.09111
1355.79619,0.09008
1353.86760,0.08922
1351.93901,0.08842
1350.01043,0.08760
1348.08184,0.08681
1346.15325,0.08611
1344.22467,0.08553
1342.29608,0.08495
1340.36750,0.08430
1338.43891,0.08363
1336.51032,0.08297
1334.58174,0.08244
1332.65315,0.08207
1330.72456,0.08159
1328.79598,0.08102
1326.86739,0.08064
1324.93880,0.08044
1323.01022,0.08022
1321.08163,0.07988
1319.15305,0.07952
1317.22446,0.07933
1315.29587,0.07916
1313.36729,0.07880
1311.43870,0.07840
1309.51011,0.07829
1307.58153,0.07820
1305.65294,0.07780
1303.72435,0.07746
1301.79577,0.07731
1299.86718,0.07727
1297.93860,0.07730
1296.01001,0.07742
1294.08142,0.07781
1292.15284,0.07846
1290.22425,0.07926
1288.29566,0.08025
1286.36708,0.08143
1284.43849,0.08282
1282.50991,0.08443
1280.58132,0.08609
1278.65273,0.08774
1276.72415,0.08959
1274.79556,0.09138
1272.86697,0.09307
1270.93839,0.09500
1269.00980,0.09711
1267.08121,0.09919
1265.15263,0.10131
1263.22404,0.10378
1261.29546,0.10669
1259.36687,0.11000
1257.43828,0.11403
1255.50970,0.11869
1253.58111,0.12366
1251.65252,0.12887
1249.72394,0.13423
1247.79535,0.13943
1245.86677,0.14430
1243.93818,0.14889
1242.00959,0.15326
1240.08101,0.15744
1238.15242,0.16137
1236.22383,0.16491
1234.29525,0.16798
1232.36666,0.17082
1230.43807,0.17343
1228.50949,0.17579
1226.58090,0.17824
1224.65232,0.18075
1222.72373,0.18305
1220.79514,0.18519
1218.86656,0.18761
1216.93797,0.19023
1215.00938,0.19260
1213.08080,0.19505
1211.15221,0.19749
1209.22363,0.20006
1207.29504,0.20282
1205.36645,0.20530
1203.43787,0.20782
1201.50928,0.21034
1199.58069,0.21243
1197.65211,0.21423
1195.72352,0.21601
1193.79493,0.21786
1191.86635,0.21971
1189.93776,0.22181
1188.00918,0.22389
1186.08059,0.22563
1184.15200,0.22747
1182.22342,0.22932
1180.29483,0.23134
1178.36624,0.23404
1176.43766,0.23703
1174.50907,0.23997
1172.58048,0.24306
1170.65190,0.24620
1168.72331,0.24944
1166.79473,0.25310
1164.86614,0.25673
1162.93755,0.25943
1161.00897,0.26100
1159.08038,0.26188
1157.15179,0.26260
1155.22321,0.26341
1153.29462,0.26463
1151.36604,0.26634
1149.43745,0.26845
1147.50886,0.27071
1145.58028,0.27279
1143.65169,0.27530
1141.72310,0.27850
1139.79452,0.28217
1137.86593,0.28616
1135.93734,0.29018
1134.00876,0.29466
1132.08017,0.29897
1130.15159,0.30277
1128.22300,0.30764
1126.29441,0.31350
1124.36583,0.31909
1122.43724,0.32464
1120.50865,0.33064
1118.58007,0.33683
1116.65148,0.34288
1114.72290,0.34902
1112.79431,0.35561
1110.86572,0.36204
1108.93714,0.36785
1107.00855,0.37298
1105.07996,0.37738
1103.15138,0.38173
1101.22279,0.38538
1099.29420,0.38770
1097.36562,0.38947
1095.43703,0.39084
1093.50845,0.39161
1091.57986,0.39194
1089.65127,0.39218
1087.72269,0.39210
1085.79410,0.39160
1083.86551,0.39089
1081.93693,0.39008
1080.00834,0.38887
1078.07976,0.38760
1076.15117,0.38727
1074.22258,0.38681
1072.29400,0.38598
1070.36541,0.38556
1068.43682,0.38548
1066.50824,0.38584
1064.57965,0.38624
1062.65106,0.38673
1060.72248,0.38632
1058.79389,0.38453
1056.86531,0.38277
1054.93672,0.38142
1053.00813,0.38030
1051.07955,0.37940
1049.15096,0.37915
1047.22237,0.37964
1045.29379,0.38101
1043.36520,0.38390
1041.43661,0.38726
1039.50803,0.38992
1037.57944,0.39217
1035.65086,0.39424
1033.72227,0.39563
1031.79368,0.39587
1029.86510,0.39486
1027.93651,0.39287
1026.00792,0.39056
1024.07934,0.38778
1022.15075,0.38444
1020.22217,0.38147
1018.29358,0.37860
1016.36499,0.37510
1014.43641,0.37196
1012.50782,0.36949
1010.57923,0.36645
1008.65065,0.36277
1006.72206,0.35873
1004.79347,0.35445
1002.86489,0.35019
1000.93630,0.34520
999.00772,0.33938
997.07913,0.33377
995.15054,0.32846
993.22196,0.32270
991.29337,0.31654
989.36478,0.31015
987.43620,0.30297
985.50761,0.29492
983.57903,0.28639
981.65044,0.27735
979.72185,0.26748
977.79327,0.25681
975.86468,0.24581
973.93609,0.23491
972.00751,0.22417
970.07892,0.21356
968.15033,0.20315
966.22175,0.19312
964.29316,0.18409
962.36458,0.17607
960.43599,0.16860
958.50740,0.16196
956.57882,0.15603
954.65023,0.15069
952.72164,0.14607
950.79306,0.14200
948.86447,0.13873
946.93589,0.13615
945.00730,0.13381
943.07871,0.13176
941.15013,0.12989
939.22154,0.12824
937.29295,0.12668
935.36437,0.12498
933.43578,0.12329
931.50719,0.12167
929.57861,0.12026
927.65002,0.11925
925.72144,0.11855
923.79285,0.11780
921.86426,0.11698
919.93568,0.11641
918.00709,0.11612
916.07850,0.11591
914.14992,0.11540
912.22133,0.11385
910.29274,0.11081
908.36416,0.10624
906.43557,0.10027
904.50699,0.09372
902.57840,0.08716
900.64981,0.08043
898.72123,0.07385
896.79264,0.06786
894.86405,0.06238
892.93547,0.05743
891.00688,0.05309
889.07830,0.04905
887.14971,0.04533
885.22112,0.04164
883.29254,0.03783
881.36395,0.03446
879.43536,0.03112
877.50678,0.02788
875.57819,0.02479
873.64960,0.02137
871.72102,0.01822
869.79243,0.01501
867.86385,0.01178
865.93526,0.00914
864.00667,0.00675
862.07809,0.00479
860.14950,0.00306
858.22091,0.00152
856.29233,0.00057
854.36374,0.00000
852.43516,-0.00027
850.50657,0.00027
848.57798,0.00127
846.64940,0.00255
844.72081,0.00466
842.79222,0.00716
840.86364,0.00995
838.93505,0.01375
837.00646,0.01765
835.07788,0.02131
833.14929,0.02472
831.22071,0.02712
829.29212,0.02889
827.36353,0.03043
825.43495,0.03114
823.50636,0.03113
821.57777,0.03171
819.64919,0.03297
817.72060,0.03398
815.79201,0.03515
813.86343,0.03764
811.93484,0.04150
810.00626,0.04664
808.07767,0.05433
806.14908,0.06385
804.22050,0.07300
802.29191,0.08043
800.36332,0.08391
798.43474,0.08262
796.50615,0.07768
794.57757,0.07104
792.64898,0.06471
790.72039,0.05949
788.79181,0.05582
786.86322,0.05450
784.93463,0.05578
783.00605,0.05816
781.07746,0.05981
779.14887,0.05830
777.22029,0.05301
775.29170,0.04620
773.36312,0.03928
771.43453,0.03383
769.50594,0.03014
767.57736,0.02751
765.64877,0.02621
763.72018,0.02599
761.79160,0.02636
759.86301,0.02660
757.93443,0.02694
756.00584,0.02719
754.07725,0.02680
752.14867,0.02610
750.22008,0.02504
748.29149,0.02359
746.36291,0.02143
744.43432,0.01907
742.50573,0.01658
740.57715,0.01379
738.64856,0.01096
736.71998,0.00806
734.79139,0.00615
732.86280,0.00502
730.93422,0.00453
729.00563,0.00467
727.07704,0.00481
725.14846,0.00518
723.21987,0.00531
721.29129,0.00512
719.36270,0.00428
717.43411,0.00268
715.50553,0.00091
713.57694,0.00000
711.64835,0.00051
709.71977,0.00112
707.79118,0.00224
705.86259,0.00436
703.93401,0.00706
702.00542,0.01039
700.07684,0.01526
698.14825,0.02173
696.21966,0.02613
694.29108,0.02616
692.36249,0.02188
690.43390,0.01625
688.50532,0.01301
686.57673,0.01085
684.64814,0.00865
682.71956,0.00683
680.79097,0.00527
678.86239,0.00444
676.93380,0.00425
675.00521,0.00356
673.07663,0.00234
671.14804,0.00128
669.21945,0.00000
667.29087,-0.00053
665.36228,-0.00070
663.43370,-0.00192
661.50511,-0.00262
659.57652,-0.00282
657.64794,-0.00310
655.71935,-0.00286
653.79076,-0.00160
651.86218,-0.00051
649.93359,0.00029
648.00500,0.00138
646.07642,0.00083
644.14783,-0.00048
642.21925,-0.00080
640.29066,-0.00084
638.36207,-0.00102
636.43349,-0.00049
634.50490,0.00067
632.57631,0.00084
630.64773,0.00119
628.71914,0.00217
626.79056,0.00204
624.86197,0.00182
622.93338,0.00244
621.00480,0.00338
619.07621,0.00476
617.14762,0.00623
615.21904,0.00709
613.29045,0.00772
611.36186,0.00849
609.43328,0.00895
607.50469,0.00880
605.57611,0.00968
603.64752,0.01220
601.71893,0.01404
599.79035,0.01604
597.86176,0.01877
595.93317,0.02088
594.00459,0.02346
592.07600,0.02615
590.14742,0.02822
588.21883,0.03132
586.29024,0.03629
584.36166,0.04086
582.43307,0.04471
580.50448,0.04907
578.57590,0.05271
576.64731,0.05722
574.71872,0.06304
572.79014,0.06906
570.86155,0.07520
568.93297,0.07982
567.00438,0.08451
565.07579,0.09054
563.14721,0.09619
561.21862,0.10110
559.29003,0.10636
557.36145,0.11184
555.43286,0.11611
553.50427,0.11924
551.57569,0.12138
549.64710,0.12515
547.71852,0.13242
545.78993,0.13895
543.86134,0.14354
541.93276,0.14961
540.00417,0.15719
538.07558,0.16362
536.14700,0.16892
534.21841,0.17232
532.28983,0.17420
530.36124,0.17601
528.43265,0.17449
526.50407,0.17127
524.57548,0.17069
522.64689,0.16876
520.71831,0.16276
518.78972,0.15804
516.86113,0.15522
514.93255,0.14971
513.00396,0.14151
511.07538,0.13243
509.14679,0.12612
507.21820,0.12391
505.28962,0.12296
503.36103,0.12162
501.43244,0.12254
499.50386,0.12704
497.57527,0.13185
495.64669,0.13941
493.71810,0.14832
491.78951,0.15604
489.86093,0.16816
487.93234,0.18213
486.00375,0.19543
484.07517,0.21007
482.14658,0.22304
480.21799,0.23253
478.28941,0.24050
476.36082,0.24599
474.43224,0.24862
472.50365,0.25114
470.57506,0.25179
468.64648,0.24454
466.71789,0.23058
464.78930,0.22003
462.86072,0.20985
460.93213,0.19679
459.00355,0.18231
457.07496,0.16560
455.14637,0.15196
453.21779,0.14012
451.28920,0.12865
449.36061,0.11769
447.43203,0.10849
445.50344,0.10140
443.57485,0.09573
441.64627,0.09105
439.71768,0.08557
437.78910,0.08305
435.86051,0.07937
433.93192,0.07798
432.00334,0.07904
430.07475,0.07278
428.14616,0.06899
426.21758,0.06750
424.28899,0.06145
422.36040,0.05377
420.43182,0.05018
418.50323,0.04878
416.57465,0.04423
414.64606,0.03749
412.71747,0.02877
410.78889,0.02345
408.86030,0.01729
406.93171,0.01051
405.00313,0.00655
403.07454,0.00256
401.14596,0.00000
399.21737,0.00000
