3747.24323,0.00000
3745.31464,0.00175
3743.38605,0.00046
3741.45747,0.00018
3739.52888,0.00216
3737.60030,0.00324
3735.67171,0.00326
3733.74312,0.00312
3731.81454,0.00345
3729.88595,0.00386
3727.95736,0.00493
3726.02878,0.00585
3724.10019,0.00648
3722.17161,0.00800
3720.24302,0.00911
3718.31443,0.01067
3716.38585,0.01278
3714.45726,0.01547
3712.52867,0.01833
3710.60009,0.01994
3708.67150,0.02244
3706.74291,0.02548
3704.81433,0.02888
3702.88574,0.03224
3700.95716,0.03435
3699.02857,0.03638
3697.09998,0.03777
3695.17140,0.03873
3693.24281,0.03957
3691.31422,0.04098
3689.38564,0.04225
3687.45705,0.04269
3685.52846,0.04479
3683.59988,0.04779
3681.67129,0.05087
3679.74271,0.05405
3677.81412,0.05807
3675.88553,0.06169
3673.95695,0.06418
3672.02836,0.06875
3670.09977,0.07278
3668.17119,0.07567
3666.24260,0.07976
3664.31402,0.08367
3662.38543,0.08759
3660.45684,0.09126
3658.52826,0.09491
3656.59967,0.09830
3654.67108,0.10108
3652.74250,0.10462
3650.81391,0.10786
3648.88532,0.10993
3646.95674,0.11188
3645.02815,0.11475
3643.09957,0.11775
3641.17098,0.12028
3639.24239,0.12278
3637.31381,0.12512
3635.38522,0.12772
3633.45663,0.13017
3631.52805,0.13305
3629.59946,0.13552
3627.67088,0.13598
3625.74229,0.13743
3623.81370,0.13940
3621.88512,0.14061
3619.95653,0.14090
3618.02794,0.13963
3616.09936,0.13896
3614.17077,0.13877
3612.24218,0.13816
3610.31360,0.13766
3608.38501,0.13690
3606.45643,0.13635
3604.52784,0.13640
3602.59925,0.13647
3600.67067,0.13632
3598.74208,0.13638
3596.81349,0.13680
3594.88491,0.13702
3592.95632,0.13681
3591.02774,0.13721
3589.09915,0.13793
3587.17056,0.13800
3585.24198,0.13831
3583.31339,0.13923
3581.38480,0.14021
3579.45622,0.14103
3577.52763,0.14179
3575.59904,0.14278
3573.67046,0.14374
3571.74187,0.14475
3569.81329,0.14598
3567.88470,0.14694
3565.95611,0.14775
3564.02753,0.14909
3562.09894,0.15059
3560.17035,0.15179
3558.24177,0.15297
3556.31318,0.15417
3554.38459,0.15544
3552.45601,0.15650
3550.52742,0.15745
3548.59884,0.15881
3546.67025,0.16004
3544.74166,0.16109
3542.81308,0.16222
3540.88449,0.16354
3538.95590,0.16505
3537.02732,0.16616
3535.09873,0.16715
3533.17015,0.16840
3531.24156,0.16971
3529.31297,0.17088
3527.38439,0.17199
3525.45580,0.17324
3523.52721,0.17429
3521.59863,0.17529
3519.67004,0.17641
3517.74145,0.17759
3515.81287,0.17898
3513.88428,0.18021
3511.95570,0.18125
3510.02711,0.18237
3508.09852,0.18354
3506.16994,0.18466
3504.24135,0.18568
3502.31276,0.18673
3500.38418,0.18781
3498.45559,0.18893
3496.52701,0.19015
3494.59842,0.19119
3492.66983,0.19223
3490.74125,0.19336
3488.81266,0.19427
3486.88407,0.19516
3484.95549,0.19607
3483.02690,0.19697
3481.09831,0.19788
3479.16973,0.19882
3477.24114,0.19982
3475.31256,0.20072
3473.38397,0.20154
3471.45538,0.20237
3469.52680,0.20319
3467.59821,0.20403
3465.66962,0.20488
3463.74104,0.20561
3461.81245,0.20622
3459.88386,0.20702
3457.95528,0.20795
3456.02669,0.20885
3454.09811,0.20950
3452.16952,0.20991
3450.24093,0.21061
3448.31235,0.21147
3446.38376,0.21218
3444.45517,0.21282
3442.52659,0.21353
3440.59800,0.21408
3438.66942,0.21459
3436.74083,0.21528
3434.81224,0.21573
3432.88366,0.21621
3430.95507,0.21681
3429.02648,0.21731
3427.09790,0.21794
3425.16931,0.21847
3423.24072,0.21903
3421.31214,0.21971
3419.38355,0.22018
3417.45497,0.22055
3415.52638,0.22097
3413.59779,0.22135
3411.66921,0.22169
3409.74062,0.22200
3407.81203,0.22234
3405.88345,0.22269
3403.95486,0.22294
3402.02628,0.22322
3400.09769,0.22352
3398.16910,0.22393
3396.24052,0.22450
3394.31193,0.22472
3392.38334,0.22467
3390.45476,0.22485
3388.52617,0.22524
3386.59758,0.22560
3384.66900,0.22588
3382.74041,0.22606
3380.81183,0.22628
3378.88324,0.22654
3376.95465,0.22655
3375.02607,0.22680
3373.09748,0.22723
3371.16889,0.22741
3369.24031,0.22750
3367.31172,0.22756
3365.38314,0.22773
3363.45455,0.22791
3361.52596,0.22800
3359.59738,0.22813
3357.66879,0.22845
3355.74020,0.22873
3353.81162,0.22871
3351.88303,0.22879
3349.95444,0.22904
3348.02586,0.22915
3346.09727,0.22906
3344.16869,0.22902
3342.24010,0.22914
3340.31151,0.22919
3338.38293,0.22926
3336.45434,0.22930
3334.52575,0.22926
3332.59717,0.22922
3330.66858,0.22911
3328.73999,0.22906
3326.81141,0.22919
3324.88282,0.22926
3322.95424,0.22910
3321.02565,0.22905
3319.09706,0.22918
3317.16848,0.22930
3315.23989,0.22922
3313.31130,0.22891
3311.38272,0.22876
3309.45413,0.22865
3307.52555,0.22845
3305.59696,0.22838
3303.66837,0.22820
3301.73979,0.22801
3299.81120,0.22800
3297.88261,0.22783
3295.95403,0.22750
3294.02544,0.22724
3292.09685,0.22698
3290.16827,0.22671
3288.23968,0.22647
3286.31110,0.22617
3284.38251,0.22572
3282.45392,0.22520
3280.52534,0.22458
3278.59675,0.22404
3276.66816,0.22364
3274.73958,0.22302
3272.81099,0.22227
3270.88241,0.22146
3268.95382,0.22063
3267.02523,0.21977
3265.09665,0.21873
3263.16806,0.21785
3261.23947,0.21705
3259.31089,0.21615
3257.38230,0.21525
3255.45371,0.21435
3253.52513,0.21346
3251.59654,0.21248
3249.66796,0.21156
3247.73937,0.21056
3245.81078,0.20951
3243.88220,0.20877
3241.95361,0.20799
3240.02502,0.20698
3238.09644,0.20610
3236.16785,0.20546
3234.23927,0.20469
3232.31068,0.20370
3230.38209,0.20296
3228.45351,0.20223
3226.52492,0.20127
3224.59633,0.20028
3222.66775,0.19943
3220.73916,0.19881
3218.81057,0.19804
3216.88199,0.19709
3214.95340,0.19639
3213.02482,0.19571
3211.09623,0.19480
3209.16764,0.19388
3207.23906,0.19310
3205.31047,0.19223
3203.38188,0.19133
3201.45330,0.19049
3199.52471,0.18958
3197.59612,0.18873
3195.66754,0.18789
3193.73895,0.18702
3191.81037,0.18619
3189.88178,0.18528
3187.95319,0.18430
3186.02461,0.18335
3184.09602,0.18231
3182.16743,0.18133
3180.23885,0.18055
3178.31026,0.17963
3176.38168,0.17857
3174.45309,0.17770
3172.52450,0.17695
3170.59592,0.17604
3168.66733,0.17497
3166.73874,0.17392
3164.81016,0.17299
3162.88157,0.17218
3160.95298,0.17138
3159.02440,0.17061
3157.09581,0.16987
3155.16723,0.16900
3153.23864,0.16807
3151.31005,0.16717
3149.38147,0.16635
3147.45288,0.16567
3145.52429,0.16496
3143.59571,0.16411
3141.66712,0.16328
3139.73854,0.16258
3137.80995,0.16195
3135.88136,0.16131
3133.95278,0.16051
3132.02419,0.15975
3130.09560,0.15926
3128.16702,0.15878
3126.23843,0.15831
3124.30984,0.15780
3122.38126,0.15718
3120.45267,0.15664
3118.52409,0.15620
3116.59550,0.15572
3114.66691,0.15517
3112.73833,0.15473
3110.80974,0.15431
3108.88115,0.15380
3106.95257,0.15324
3105.02398,0.15277
3103.09540,0.15245
3101.16681,0.15204
3099.23822,0.15161
3097.30964,0.15132
3095.38105,0.15095
3093.45246,0.15054
3091.52388,0.15027
3089.59529,0.14999
3087.66670,0.14952
3085.73812,0.14909
3083.80953,0.14872
3081.88095,0.14829
3079.95236,0.14784
3078.02377,0.14734
3076.09519,0.14669
3074.16660,0.14611
3072.23801,0.14563
3070.30943,0.14506
3068.38084,0.14458
3066.45225,0.14402
3064.52367,0.14319
3062.59508,0.14246
3060.66650,0.14185
3058.73791,0.14117
3056.80932,0.14050
3054.88074,0.13986
3052.95215,0.13919
3051.02356,0.13845
3049.09498,0.13761
3047.16639,0.13682
3045.23781,0.13613
3043.30922,0.13550
3041.38063,0.13500
3039.45205,0.13447
3037.52346,0.13380
3035.59487,0.13322
3033.66629,0.13284
3031.73770,0.13248
3029.80911,0.13191
3027.88053,0.13132
3025.95194,0.13083
3024.02336,0.13043
3022.09477,0.13012
3020.16618,0.12975
3018.23760,0.12943
3016.30901,0.12926
3014.38042,0.12906
3012.45184,0.12888
3010.52325,0.12882
3008.59467,0.12893
3006.66608,0.12912
3004.73749,0.12947
3002.80891,0.12995
3000.88032,0.13029
2998.95173,0.13070
2997.02315,0.13136
2995.09456,0.13213
2993.16597,0.13299
2991.23739,0.13392
2989.30880,0.13499
2987.38022,0.13623
2985.45163,0.13774
2983.52304,0.13951
2981.59446,0.14140
2979.66587,0.14336
2977.73728,0.14539
2975.80870,0.14758
2973.88011,0.14994
2971.95153,0.15257
2970.02294,0.15541
2968.09435,0.15835
2966.16577,0.16127
2964.23718,0.16401
2962.30859,0.16689
2960.38001,0.16978
2958.45142,0.17225
2956.52283,0.17430
2954.59425,0.17601
2952.66566,0.17772
2950.73708,0.17961
2948.80849,0.18190
2946.87990,0.18485
2944.95132,0.18857
2943.02273,0.19297
2941.09414,0.19792
2939.16556,0.20359
2937.23697,0.20948
2935.30838,0.21541
2933.37980,0.22149
2931.45121,0.22737
2929.52263,0.23293
2927.59404,0.23781
2925.66545,0.24164
2923.73687,0.24424
2921.80828,0.24521
2919.87969,0.24379
2917.95111,0.23909
2916.02252,0.23071
2914.09394,0.21958
2912.16535,0.20857
2910.23676,0.19966
2908.30818,0.19282
2906.37959,0.18753
2904.45100,0.18303
2902.52242,0.17911
2900.59383,0.17561
2898.66524,0.17234
2896.73666,0.16925
2894.80807,0.16619
2892.87949,0.16322
2890.95090,0.16038
2889.02231,0.15771
2887.09373,0.15523
2885.16514,0.15298
2883.23655,0.15127
2881.30797,0.15004
2879.37938,0.14916
2877.45080,0.14872
2875.52221,0.14868
2873.59362,0.14885
2871.66504,0.14916
2869.73645,0.14972
2867.80786,0.15065
2865.87928,0.15232
2863.95069,0.15510
2862.02210,0.15924
2860.09352,0.16496
2858.16493,0.17191
2856.23635,0.17907
2854.30776,0.18513
2852.37917,0.18825
2850.45059,0.18609
2848.52200,0.17731
2846.59341,0.16389
2844.66483,0.15014
2842.73624,0.13855
2840.80766,0.12932
2838.87907,0.12213
2836.95048,0.11635
2835.02190,0.11163
2833.09331,0.10795
2831.16472,0.10499
2829.23614,0.10246
2827.30755,0.10014
2825.37896,0.09798
2823.45038,0.09616
2821.52179,0.09456
2819.59321,0.09302
2817.66462,0.09159
2815.73603,0.09030
2813.80745,0.08909
2811.87886,0.08794
2809.95027,0.08673
2808.02169,0.08561
2806.09310,0.08466
2804.16451,0.08372
2802.23593,0.08275
2800.30734,0.08175
2798.37876,0.08083
2796.45017,0.08005
2794.52158,0.07937
2792.59300,0.07871
2790.66441,0.07792
2788.73582,0.07704
2786.80724,0.07629
2784.87865,0.07569
2782.95007,0.07512
2781.02148,0.07446
2779.09289,0.07377
2777.16431,0.07324
2775.23572,0.07271
2773.30713,0.07216
2771.37855,0.07170
2769.44996,0.07118
2767.52137,0.07063
2765.59279,0.07020
2763.66420,0.06982
2761.73562,0.06936
2759.80703,0.06890
2757.87844,0.06860
2755.94986,0.06827
2754.02127,0.06777
2752.09268,0.06735
2750.16410,0.06707
2748.23551,0.06670
2746.30693,0.06634
2744.37834,0.06599
2742.44975,0.06555
2740.52117,0.06519
2738.59258,0.06495
2736.66399,0.06470
2734.73541,0.06432
2732.80682,0.06392
2730.87823,0.06360
2728.94965,0.06326
2727.02106,0.06282
2725.09248,0.06230
2723.16389,0.06186
2721.23530,0.06145
2719.30672,0.06093
2717.37813,0.06043
2715.44954,0.06004
2713.52096,0.05971
2711.59237,0.05927
2709.66379,0.05874
2707.73520,0.05833
2705.80661,0.05801
2703.87803,0.05765
2701.94944,0.05727
2700.02085,0.05692
2698.09227,0.05649
2696.16368,0.05612
2694.23509,0.05591
2692.30651,0.05565
2690.37792,0.05538
2688.44934,0.05511
2686.52075,0.05480
2684.59216,0.05453
2682.66358,0.05426
2680.73499,0.05391
2678.80640,0.05358
2676.87782,0.05335
2674.94923,0.05301
2673.02064,0.05269
2671.09206,0.05240
2669.16347,0.05198
2667.23489,0.05149
2665.30630,0.05104
2663.37771,0.05074
2661.44913,0.05049
2659.52054,0.05014
2657.59195,0.04978
2655.66337,0.04953
2653.73478,0.04925
2651.80620,0.04886
2649.87761,0.04851
2647.94902,0.04820
2646.02044,0.04795
2644.09185,0.04769
2642.16326,0.04735
2640.23468,0.04701
2638.30609,0.04672
2636.37750,0.04640
2634.44892,0.04606
2632.52033,0.04579
2630.59175,0.04547
2628.66316,0.04504
2626.73457,0.04476
2624.80599,0.04446
2622.87740,0.04409
2620.94881,0.04373
2619.02023,0.04335
2617.09164,0.04303
2615.16306,0.04269
2613.23447,0.04233
2611.30588,0.04203
2609.37730,0.04172
2607.44871,0.04132
2605.52012,0.04090
2603.59154,0.04064
2601.66295,0.04043
2599.73436,0.04017
2597.80578,0.03991
2595.87719,0.03960
2593.94861,0.03925
2592.02002,0.03890
2590.09143,0.03860
2588.16285,0.03829
2586.23426,0.03794
2584.30567,0.03764
2582.37709,0.03736
2580.44850,0.03708
2578.51991,0.03679
2576.59133,0.03649
2574.66274,0.03618
2572.73416,0.03580
2570.80557,0.03545
2568.87698,0.03521
2566.94840,0.03498
2565.01981,0.03469
2563.09122,0.03443
2561.16264,0.03418
2559.23405,0.03387
2557.30547,0.03367
2555.37688,0.03354
2553.44829,0.03336
2551.51971,0.03314
2549.59112,0.03278
2547.66253,0.03247
2545.73395,0.03228
2543.80536,0.03205
2541.87677,0.03184
2539.94819,0.03169
2538.01960,0.03155
2536.09102,0.03132
2534.16243,0.03101
2532.23384,0.03077
2530.30526,0.03053
2528.37667,0.03025
2526.44808,0.03006
2524.51950,0.02989
2522.59091,0.02959
2520.66233,0.02926
2518.73374,0.02902
2516.80515,0.02876
2514.87657,0.02844
2512.94798,0.02822
2511.01939,0.02806
2509.09081,0.02787
2507.16222,0.02764
2505.23363,0.02735
2503.30505,0.02708
2501.37646,0.02681
2499.44788,0.02647
2497.51929,0.02620
2495.59070,0.02603
2493.66212,0.02584
2491.73353,0.02555
2489.80494,0.02518
2487.87636,0.02485
2485.94777,0.02461
2484.01919,0.02437
2482.09060,0.02409
2480.16201,0.02388
2478.23343,0.02364
2476.30484,0.02333
2474.37625,0.02306
2472.44767,0.02278
2470.51908,0.02251
2468.59049,0.02223
2466.66191,0.02185
2464.73332,0.02152
2462.80474,0.02134
2460.87615,0.02118
2458.94756,0.02094
2457.01898,0.02058
2455.09039,0.02022
2453.16180,0.02000
2451.23322,0.01983
2449.30463,0.01958
2447.37604,0.01926
2445.44746,0.01896
2443.51887,0.01871
2441.59029,0.01842
2439.66170,0.01808
2437.73311,0.01780
2435.80453,0.01759
2433.87594,0.01743
2431.94735,0.01718
2430.01877,0.01687
2428.09018,0.01664
2426.16160,0.01640
2424.23301,0.01616
2422.30442,0.01583
2420.37584,0.01541
2418.44725,0.01515
2416.51866,0.01494
2414.59008,0.01471
2412.66149,0.01450
2410.73290,0.01425
2408.80432,0.01399
2406.87573,0.01379
2404.94715,0.01360
2403.01856,0.01337
2401.08997,0.01317
2399.16139,0.01296
2397.23280,0.01269
2395.30421,0.01244
2393.37563,0.01221
2391.44704,0.01199
2389.51846,0.01174
2387.58987,0.01152
2385.66128,0.01139
2383.73270,0.01123
2381.80411,0.01106
2379.87552,0.01104
2377.94694,0.01102
2376.01835,0.01085
2374.08976,0.01069
2372.16118,0.01052
2370.23259,0.01022
2368.30401,0.00997
2366.37542,0.00980
2364.44683,0.00963
2362.51825,0.00945
2360.58966,0.00912
2358.66107,0.00879
2356.73249,0.00851
2354.80390,0.00813
2352.87532,0.00777
2350.94673,0.00760
2349.01814,0.00791
2347.08956,0.00839
2345.16097,0.00838
2343.23238,0.00811
2341.30380,0.00785
2339.37521,0.00755
2337.44662,0.00729
2335.51804,0.00710
2333.58945,0.00702
2331.66087,0.00685
2329.73228,0.00666
2327.80369,0.00652
2325.87511,0.00636
2323.94652,0.00621
2322.01793,0.00600
2320.08935,0.00586
2318.16076,0.00578
2316.23217,0.00572
2314.30359,0.00560
2312.37500,0.00537
2310.44642,0.00524
2308.51783,0.00517
2306.58924,0.00510
2304.66066,0.00501
2302.73207,0.00490
2300.80348,0.00481
2298.87490,0.00469
2296.94631,0.00454
2295.01773,0.00435
2293.08914,0.00427
2291.16055,0.00417
2289.23197,0.00398
2287.30338,0.00389
2285.37479,0.00387
2283.44621,0.00379
2281.51762,0.00367
2279.58903,0.00357
2277.66045,0.00344
2275.73186,0.00327
2273.80328,0.00314
2271.87469,0.00310
2269.94610,0.00307
2268.01752,0.00293
2266.08893,0.00279
2264.16034,0.00270
2262.23176,0.00260
2260.30317,0.00253
2258.37459,0.00243
2256.44600,0.00234
2254.51741,0.00232
2252.58883,0.00230
2250.66024,0.00218
2248.73165,0.00198
2246.80307,0.00186
2244.87448,0.00185
2242.94589,0.00183
2241.01731,0.00178
2239.08872,0.00171
2237.16014,0.00163
2235.23155,0.00152
2233.30296,0.00143
2231.37438,0.00140
2229.44579,0.00134
2227.51720,0.00127
2225.58862,0.00122
2223.66003,0.00111
2221.73145,0.00105
2219.80286,0.00102
2217.87427,0.00094
2215.94569,0.00086
2214.01710,0.00076
2212.08851,0.00071
2210.15993,0.00072
2208.23134,0.00073
2206.30275,0.00066
2204.37417,0.00058
2202.44558,0.00058
2200.51700,0.00056
2198.58841,0.00054
2196.65982,0.00053
2194.73124,0.00052
2192.80265,0.00050
2190.87406,0.00046
2188.94548,0.00052
2187.01689,0.00055
2185.08830,0.00043
2183.15972,0.00039
2181.23113,0.00040
2179.30255,0.00034
2177.37396,0.00034
2175.44537,0.00040
2173.51679,0.00037
2171.58820,0.00013
2169.65961,0.00000
2167.73103,0.00023
2165.80244,0.00040
2163.87386,0.00038
2161.94527,0.00042
2160.01668,0.00047
2158.08810,0.00050
2156.15951,0.00051
2154.23092,0.00048
2152.30234,0.00041
2150.37375,0.00035
2148.44516,0.00040
2146.51658,0.00044
2144.58799,0.00047
2142.65941,0.00053
2140.73082,0.00049
2138.80223,0.00043
2136.87365,0.00041
2134.94506,0.00041
2133.01647,0.00038
2131.08789,0.00040
2129.15930,0.00047
2127.23072,0.00045
2125.30213,0.00036
2123.37354,0.00027
2121.44496,0.00019
2119.51637,0.00020
2117.58778,0.00025
2115.65920,0.00026
2113.73061,0.00022
2111.80202,0.00017
2109.87344,0.00019
2107.94485,0.00013
2106.01627,0.00000
2104.08768,0.00004
2102.15909,0.00014
2100.23051,0.00014
2098.30192,0.00011
2096.37333,0.00012
2094.44475,0.00014
2092.51616,0.00006
2090.58758,0.00001
2088.65899,0.00003
2086.73040,0.00001
2084.80182,0.00005
2082.87323,0.00010
2080.94464,0.00006
2079.01606,0.00000
2077.08747,0.00002
2075.15888,0.00003
2073.23030,-0.00004
2071.30171,-0.00006
2069.37313,-0.00007
2067.44454,-0.00003
2065.51595,0.00002
2063.58737,-0.00001
2061.65878,-0.00002
2059.73019,0.00004
2057.80161,0.00005
2055.87302,0.00003
2053.94443,0.00014
2052.01585,0.00023
2050.08726,0.00024
2048.15868,0.00031
2046.23009,0.00040
2044.30150,0.00051
2042.37292,0.00056
2040.44433,0.00066
2038.51574,0.00081
2036.58716,0.00097
2034.65857,0.00111
2032.72999,0.00120
2030.80140,0.00132
2028.87281,0.00143
2026.94423,0.00154
2025.01564,0.00160
2023.08705,0.00161
2021.15847,0.00168
2019.22988,0.00175
2017.30129,0.00179
2015.37271,0.00177
2013.44412,0.00181
2011.51554,0.00197
2009.58695,0.00213
2007.65836,0.00230
2005.72978,0.00246
2003.80119,0.00255
2001.87260,0.00250
1999.94402,0.00246
1998.01543,0.00252
1996.08685,0.00256
1994.15826,0.00249
1992.22967,0.00231
1990.30109,0.00225
1988.37250,0.00230
1986.44391,0.00222
1984.51533,0.00211
1982.58674,0.00210
1980.65815,0.00210
1978.72957,0.00208
1976.80098,0.00214
1974.87240,0.00204
1972.94381,0.00177
1971.01522,0.00166
1969.08664,0.00162
1967.15805,0.00146
1965.22946,0.00121
1963.30088,0.00108
1961.37229,0.00103
1959.44371,0.00086
1957.51512,0.00069
1955.58653,0.00060
1953.65795,0.00056
1951.72936,0.00050
1949.80077,0.00045
1947.87219,0.00037
1945.94360,0.00031
1944.01501,0.00033
1942.08643,0.00022
1940.15784,0.00008
1938.22926,0.00005
1936.30067,-0.00001
1934.37208,-0.00003
1932.44350,-0.00001
1930.51491,-0.00001
1928.58632,-0.00003
1926.65774,-0.00005
1924.72915,0.00000
1922.80056,-0.00003
1920.87198,0.00003
1918.94339,0.00017
1917.01481,0.00022
1915.08622,0.00044
1913.15763,0.00083
1911.22905,0.00118
1909.30046,0.00154
1907.37187,0.00186
1905.44329,0.00225
1903.51470,0.00269
1901.58612,0.00316
1899.65753,0.00371
1897.72894,0.00415
1895.80036,0.00445
1893.87177,0.00474
1891.94318,0.00519
1890.01460,0.00560
1888.08601,0.00579
1886.15742,0.00608
1884.22884,0.00628
1882.30025,0.00635
1880.37167,0.00651
1878.44308,0.00670
1876.51449,0.00687
1874.58591,0.00687
1872.65732,0.00686
1870.72873,0.00690
1868.80015,0.00672
1866.87156,0.00635
1864.94298,0.00613
1863.01439,0.00581
1861.08580,0.00530
1859.15722,0.00477
1857.22863,0.00410
1855.30004,0.00349
1853.37146,0.00281
1851.44287,0.00219
1849.51428,0.00176
1847.58570,0.00143
1845.65711,0.00126
1843.72853,0.00053
1841.79994,0.00000
1839.87135,-0.00004
1837.94277,-0.00029
1836.01418,-0.00052
1834.08559,-0.00066
1832.15701,-0.00054
1830.22842,-0.00054
1828.29984,-0.00071
1826.37125,-0.00052
1824.44266,-0.00045
1822.51408,-0.00032
1820.58549,0.00002
1818.65690,0.00035
1816.72832,0.00076
1814.79973,0.00126
1812.87114,0.00191
1810.94256,0.00256
1809.01397,0.00320
1807.08539,0.00400
1805.15680,0.00503
1803.22821,0.00615
1801.29963,0.00719
1799.37104,0.00833
1797.44245,0.00968
1795.51387,0.01130
1793.58528,0.01298
1791.65669,0.01432
1789.72811,0.01569
1787.79952,0.01752
1785.87094,0.01933
1783.94235,0.02119
1782.01376,0.02321
1780.08518,0.02505
1778.15659,0.02676
1776.22800,0.02857
1774.29942,0.03073
1772.37083,0.03249
1770.44225,0.03395
1768.51366,0.03586
1766.58507,0.03755
1764.65649,0.03966
1762.72790,0.04197
1760.79931,0.04393
1758.87073,0.04648
1756.94214,0.04919
1755.01355,0.05203
1753.08497,0.05546
1751.15638,0.05902
1749.22780,0.06259
1747.29921,0.06671
1745.37062,0.07115
1743.44204,0.07565
1741.51345,0.08040
1739.58486,0.08482
1737.65628,0.08895
1735.72769,0.09319
1733.79911,0.09611
1731.87052,0.09832
1729.94193,0.10138
1728.01335,0.10416
1726.08476,0.10700
1724.15617,0.10990
1722.22759,0.11269
1720.29900,0.11609
1718.37041,0.11912
1716.44183,0.12136
1714.51324,0.12360
1712.58466,0.12614
1710.65607,0.12864
1708.72748,0.13099
1706.79890,0.13351
1704.87031,0.13569
1702.94172,0.13867
1701.01314,0.14192
1699.08455,0.14426
1697.15596,0.14769
1695.22738,0.15066
1693.29879,0.15337
1691.37021,0.15724
1689.44162,0.16050
1687.51303,0.16418
1685.58445,0.16815
1683.65586,0.17079
1681.72727,0.17399
1679.79869,0.17780
1677.87010,0.18170
1675.94152,0.18512
1674.01293,0.18780
1672.08434,0.19098
1670.15576,0.19390
1668.22717,0.19613
1666.29858,0.19842
1664.37000,0.20066
1662.44141,0.20206
1660.51282,0.20310
1658.58424,0.20424
1656.65565,0.20518
1654.72707,0.20622
1652.79848,0.20460
1650.86989,0.20265
1648.94131,0.20320
1647.01272,0.20283
1645.08413,0.20148
1643.15555,0.20084
1641.22696,0.20073
1639.29838,0.20066
1637.36979,0.20074
1635.44120,0.20002
1633.51262,0.19868
1631.58403,0.19828
1629.65544,0.19740
1627.72686,0.19586
1625.79827,0.19385
1623.86968,0.19129
1621.94110,0.18817
1620.01251,0.18548
1618.08393,0.18333
1616.15534,0.17959
1614.22675,0.17642
1612.29817,0.17416
1610.36958,0.17157
1608.44099,0.16914
1606.51241,0.16701
1604.58382,0.16526
1602.65524,0.16316
1600.72665,0.16105
1598.79806,0.15899
1596.86948,0.15705
1594.94089,0.15509
1593.01230,0.15310
1591.08372,0.15135
1589.15513,0.14935
1587.22654,0.14768
1585.29796,0.14603
1583.36937,0.14424
1581.44079,0.14247
1579.51220,0.14114
1577.58361,0.14044
1575.65503,0.13878
1573.72644,0.13757
1571.79785,0.13759
1569.86927,0.13717
1567.94068,0.13668
1566.01209,0.13696
1564.08351,0.13729
1562.15492,0.13831
1560.22634,0.13969
1558.29775,0.13903
1556.36916,0.13897
1554.44058,0.14000
1552.51199,0.14049
1550.58340,0.14103
1548.65482,0.14115
1546.72623,0.14149
1544.79765,0.14172
1542.86906,0.14158
1540.94047,0.14148
1539.01189,0.13968
1537.08330,0.13852
1535.15471,0.13838
1533.22613,0.13729
1531.29754,0.13581
1529.36895,0.13471
1527.44037,0.13363
1525.51178,0.13227
1523.58320,0.13144
1521.65461,0.13046
1519.72602,0.12925
1517.79744,0.12855
1515.86885,0.12697
1513.94026,0.12460
1512.01168,0.12164
1510.08309,0.11859
1508.15451,0.11596
1506.22592,0.11147
1504.29733,0.10656
1502.36875,0.10338
1500.44016,0.10031
1498.51157,0.09694
1496.58299,0.09329
1494.65440,0.08974
1492.72581,0.08745
1490.79723,0.08542
1488.86864,0.08312
1486.94006,0.08141
1485.01147,0.08038
1483.08288,0.08028
1481.15430,0.08077
1479.22571,0.08206
1477.29712,0.08446
1475.36854,0.08786
1473.43995,0.09279
1471.51137,0.09877
1469.58278,0.10508
1467.65419,0.11055
1465.72561,0.11334
1463.79702,0.11413
1461.86843,0.11453
1459.93985,0.11549
1458.01126,0.11657
1456.08267,0.11648
1454.15409,0.11624
1452.22550,0.11609
1450.29692,0.11567
1448.36833,0.11531
1446.43974,0.11484
1444.51116,0.11459
1442.58257,0.11445
1440.65398,0.11426
1438.72540,0.11439
1436.79681,0.11401
1434.86822,0.11316
1432.93964,0.11285
1431.01105,0.11248
1429.08247,0.11191
1427.15388,0.11176
1425.22529,0.11188
1423.29671,0.11207
1421.36812,0.11254
1419.43953,0.11272
1417.51095,0.11234
1415.58236,0.11230
1413.65378,0.11223
1411.72519,0.11191
1409.79660,0.11159
1407.86802,0.11109
1405.93943,0.11058
1404.01084,0.10972
1402.08226,0.10888
1400.15367,0.10808
1398.22508,0.10700
1396.29650,0.10624
1394.36791,0.10561
1392.43933,0.10518
1390.51074,0.10529
1388.58215,0.10552
1386.65357,0.10539
1384.72498,0.10539
1382.79639,0.10619
1380.86781,0.10719
1378.93922,0.10766
1377.01064,0.10744
1375.08205,0.10661
1373.15346,0.10523
1371.22488,0.10375
1369.29629,0.10230
1367.36770,0.10054
1365.43912,0.09888
1363.51053,0.09741
1361.58194,0.09597
1359.65336,0.09463
1357.72477,0.09356
1355.79619,0.09285
1353.86760,0.09215
1351.93901,0.09149
1350.01043,0.09080
1348.08184,0.08992
1346.15325,0.08931
1344.22467,0.08891
1342.29608,0.08835
1340.36750,0.08777
1338.43891,0.08720
1336.51032,0.08660
1334.58174,0.08621
1332.65315,0.08582
1330.72456,0.08535
1328.79598,0.08499
1326.86739,0.08469
1324.93880,0.08449
1323.01022,0.08423
1321.08163,0.08395
1319.15305,0.08373
1317.22446,0.08354
1315.29587,0.08335
1313.36729,0.08309
1311.43870,0.08294
1309.51011,0.08273
1307.58153,0.08235
1305.65294,0.08220
1303.72435,0.08210
1301.79577,0.08191
1299.86718,0.08187
1297.93860,0.08199
1296.01001,0.08225
1294.08142,0.08278
1292.15284,0.08345
1290.22425,0.08426
1288.29566,0.08534
1286.36708,0.08673
1284.43849,0.08827
1282.50991,0.08987
1280.58132,0.09162
1278.65273,0.09336
1276.72415,0.09517
1274.79556,0.09726
1272.86697,0.09957
1270.93839,0.10202
1269.00980,0.10454
1267.08121,0.10722
1265.15263,0.11019
1263.22404,0.11365
1261.29546,0.11764
1259.36687,0.12209
1257.43828,0.12728
1255.50970,0.13318
1253.58111,0.13960
1251.65252,0.14638
1249.72394,0.15303
1247.79535,0.15946
1245.86677,0.16570
1243.93818,0.17157
1242.00959,0.17701
1240.08101,0.18205
1238.15242,0.18670
1236.22383,0.19092
1234.29525,0.19474
1232.36666,0.19820
1230.43807,0.20132
1228.50949,0.20416
1226.58090,0.20682
1224.65232,0.20932
1222.72373,0.21166
1220.79514,0.21388
1218.86656,0.21586
1216.93797,0.21769
1215.00938,0.21973
1213.08080,0.22188
1211.15221,0.22379
1209.22363,0.22570
1207.29504,0.22774
1205.36645,0.22961
1203.43787,0.23133
1201.50928,0.23308
1199.58069,0.23466
1197.65211,0.23601
1195.72352,0.23732
1193.79493,0.23868
1191.86635,0.24017
1189.93776,0.24184
1188.00918,0.24337
1186.08059,0.24471
1184.15200,0.24643
1182.22342,0.24840
1180.29483,0.25035
1178.36624,0.25270
1176.43766,0.25544
1174.50907,0.25796
1172.58048,0.26017
1170.65190,0.26262
1168.72331,0.26542
1166.79473,0.26818
1164.86614,0.27064
1162.93755,0.27284
1161.00897,0.27470
1159.08038,0.27605
1157.15179,0.27724
1155.22321,0.27827
1153.29462,0.27915
1151.36604,0.28045
1149.43745,0.28214
1147.50886,0.28405
1145.58028,0.28612
1143.65169,0.28848
1141.72310,0.29119
1139.79452,0.29407
1137.86593,0.29709
1135.93734,0.30031
1134.00876,0.30383
1132.08017,0.30737
1130.15159,0.31102
1128.22300,0.31553
1126.29441,0.32089
1124.36583,0.32626
1122.43724,0.33130
1120.50865,0.33666
1118.58007,0.34234
1116.65148,0.34815
1114.72290,0.35445
1112.79431,0.36119
1110.86572,0.36780
1108.93714,0.37403
1107.00855,0.38009
1105.07996,0.38566
1103.15138,0.39045
1101.22279,0.39411
1099.29420,0.39633
1097.36562,0.39778
1095.43703,0.39884
1093.50845,0.39930
1091.57986,0.39902
1089.65127,0.39832
1087.72269,0.39722
1085.79410,0.39582
1083.86551,0.39441
1081.93693,0.39221
1080.00834,0.38968
1078.07976,0.38734
1076.15117,0.38458
1074.22258,0.38165
1072.29400,0.37865
1070.36541,0.37602
1068.43682,0.37366
1066.50824,0.37086
1064.57965,0.36843
1062.65106,0.36580
1060.72248,0.36195
1058.79389,0.35800
1056.86531,0.35422
1054.93672,0.35015
1053.00813,0.34629
1051.07955,0.34321
1049.15096,0.34024
1047.22237,0.33717
1045.29379,0.33508
1043.36520,0.33399
1041.43661,0.33297
1039.50803,0.33154
1037.57944,0.33018
1035.65086,0.32910
1033.72227,0.32739
1031.79368,0.32499
1029.86510,0.32222
1027.93651,0.31837
1026.00792,0.31376
1024.07934,0.30969
1022.15075,0.30595
1020.22217,0.30195
1018.29358,0.29788
1016.36499,0.29401
1014.43641,0.29036
1012.50782,0.28654
1010.57923,0.28272
1008.65065,0.27909
1006.72206,0.27500
1004.79347,0.27050
1002.86489,0.26577
1000.93630,0.26067
999.00772,0.25535
997.07913,0.25010
995.15054,0.24503
993.22196,0.23984
991.29337,0.23439
989.36478,0.22898
987.43620,0.22325
985.50761,0.21671
983.57903,0.20977
981.65044,0.20290
979.72185,0.19590
977.79327,0.18840
975.86468,0.18058
973.93609,0.17275
972.00751,0.16504
970.07892,0.15778
968.15033,0.15097
966.22175,0.14460
964.29316,0.13867
962.36458,0.13324
960.43599,0.12862
958.50740,0.12445
956.57882,0.12062
954.65023,0.11723
952.72164,0.11423
950.79306,0.11173
948.86447,0.10947
946.93589,0.10751
945.00730,0.10588
943.07871,0.10444
941.15013,0.10321
939.22154,0.10171
937.29295,0.10016
935.36437,0.09880
933.43578,0.09737
931.50719,0.09602
929.57861,0.09477
927.65002,0.09358
925.72144,0.09235
923.79285,0.09124
921.86426,0.09072
919.93568,0.09033
918.00709,0.08940
916.07850,0.08838
914.14992,0.08736
912.22133,0.08553
910.29274,0.08285
908.36416,0.07945
906.43557,0.07496
904.50699,0.06990
902.57840,0.06484
900.64981,0.05978
898.72123,0.05511
896.79264,0.05097
894.86405,0.04697
892.93547,0.04338
891.00688,0.04016
889.07830,0.03700
887.14971,0.03402
885.22112,0.03097
883.29254,0.02820
881.36395,0.02579
879.43536,0.02319
877.50678,0.02065
875.57819,0.01816
873.64960,0.01574
871.72102,0.01344
869.79243,0.01117
867.86385,0.00912
865.93526,0.00696
864.00667,0.00484
862.07809,0.00323
860.14950,0.00182
858.22091,0.00056
856.29233,0.00000
854.36374,-0.00001
852.43516,0.00008
850.50657,0.00032
848.57798,0.00125
846.64940,0.00292
844.72081,0.00470
842.79222,0.00689
840.86364,0.00984
838.93505,0.01311
837.00646,0.01656
835.07788,0.02002
833.14929,0.02334
831.22071,0.02595
829.29212,0.02773
827.36353,0.02968
825.43495,0.03108
823.50636,0.03166
821.57777,0.03288
819.64919,0.03458
817.72060,0.03618
815.79201,0.03801
813.86343,0.04002
811.93484,0.04212
810.00626,0.04512
808.07767,0.04986
806.14908,0.05524
804.22050,0.05987
802.29191,0.06347
800.36332,0.06520
798.43474,0.06431
796.50615,0.06116
794.57757,0.05706
792.64898,0.05336
790.72039,0.05040
788.79181,0.04807
786.86322,0.04622
784.93463,0.04538
783.00605,0.04562
781.07746,0.04527
779.14887,0.04317
777.22029,0.03930
775.29170,0.03413
773.36312,0.02875
771.43453,0.02406
769.50594,0.02069
767.57736,0.01891
765.64877,0.01787
763.72018,0.01731
761.79160,0.01746
759.86301,0.01763
757.93443,0.01759
756.00584,0.01747
754.07725,0.01727
752.14867,0.01681
750.22008,0.01600
748.29149,0.01534
746.36291,0.01432
744.43432,0.01275
742.50573,0.01129
740.57715,0.00978
738.64856,0.00835
736.71998,0.00691
734.79139,0.00545
732.86280,0.00481
730.93422,0.00474
729.00563,0.00475
727.07704,0.00516
725.14846,0.00559
723.21987,0.00583
721.29129,0.00625
719.36270,0.00628
717.43411,0.00502
715.50553,0.00344
713.57694,0.00254
711.64835,0.00211
709.71977,0.00322
707.79118,0.00444
705.86259,0.00462
703.93401,0.00638
702.00542,0.00893
700.07684,0.01136
698.14825,0.01468
696.21966,0.01754
694.29108,0.01772
692.36249,0.01469
690.43390,0.01127
688.50532,0.00934
686.57673,0.00818
684.64814,0.00735
682.71956,0.00651
680.79097,0.00546
678.86239,0.00444
676.93380,0.00413
675.00521,0.00384
673.07663,0.00320
671.14804,0.00335
669.21945,0.00404
667.29087,0.00433
665.36228,0.00319
663.43370,0.00213
661.50511,0.00242
659.57652,0.00259
657.64794,0.00229
655.71935,0.00240
653.79076,0.00348
651.86218,0.00514
649.93359,0.00592
648.00500,0.00608
646.07642,0.00634
644.14783,0.00654
642.21925,0.00640
640.29066,0.00668
638.36207,0.00800
636.43349,0.00888
634.50490,0.00943
632.57631,0.01081
630.64773,0.01192
628.71914,0.01183
626.79056,0.01155
624.86197,0.01189
622.93338,0.01254
621.00480,0.01410
619.07621,0.01577
617.14762,0.01614
615.21904,0.01656
613.29045,0.01743
611.36186,0.01831
609.43328,0.01875
607.50469,0.01937
605.57611,0.02063
603.64752,0.02162
601.71893,0.02366
599.79035,0.02612
597.86176,0.02840
595.93317,0.03092
594.00459,0.03296
592.07600,0.03507
590.14742,0.03694
588.21883,0.03975
586.29024,0.04255
584.36166,0.04545
582.43307,0.05030
580.50448,0.05309
578.57590,0.05499
576.64731,0.05790
574.71872,0.05957
572.79014,0.06220
570.86155,0.06749
568.93297,0.07269
567.00438,0.07551
565.07579,0.07831
563.14721,0.08150
561.21862,0.08517
559.29003,0.08994
557.36145,0.09365
555.43286,0.09717
553.50427,0.09951
551.57569,0.10019
549.64710,0.10225
547.71852,0.10499
545.78993,0.10789
543.86134,0.11241
541.93276,0.11751
540.00417,0.12217
538.07558,0.12644
536.14700,0.12960
534.21841,0.13273
532.28983,0.13516
530.36124,0.13573
528.43265,0.13599
526.50407,0.13547
524.57548,0.13395
522.64689,0.13141
520.71831,0.12857
518.78972,0.12592
516.86113,0.12212
514.93255,0.11836
513.00396,0.11554
511.07538,0.11424
509.14679,0.11222
507.21820,0.10822
505.28962,0.10712
503.36103,0.10916
501.43244,0.11248
499.50386,0.11639
497.57527,0.12242
495.64669,0.13209
493.71810,0.14096
491.78951,0.14842
489.86093,0.15787
487.93234,0.17100
486.00375,0.18423
484.07517,0.19342
482.14658,0.20074
480.21799,0.20862
478.28941,0.21879
476.36082,0.22649
474.43224,0.22975
472.50365,0.23279
470.57506,0.23395
468.64648,0.22874
466.71789,0.21728
464.78930,0.20871
462.86072,0.20101
460.93213,0.19186
459.00355,0.18326
457.07496,0.17217
455.14637,0.16312
453.21779,0.15352
451.28920,0.14144
449.36061,0.13257
447.43203,0.12692
445.50344,0.11624
443.57485,0.10246
441.64627,0.09836
439.71768,0.09921
437.78910,0.09654
435.86051,0.09055
433.93192,0.08658
432.00334,0.08439
430.07475,0.07837
428.14616,0.07537
426.21758,0.07548
424.28899,0.06652
422.36040,0.05226
420.43182,0.04853
418.50323,0.04635
416.57465,0.04275
414.64606,0.04250
412.71747,0.03373
410.78889,0.02347
408.86030,0.01581
406.93171,0.00824
405.00313,0.00131
403.07454,0.00000
401.14596,0.00564
399.21737,0.00000
