3747.24323,0.00000
3745.31464,0.00116
3743.38605,0.00028
3741.45747,0.00035
3739.52888,0.00172
3737.60030,0.00236
3735.67171,0.00260
3733.74312,0.00287
3731.81454,0.00334
3729.88595,0.00385
3727.95736,0.00492
3726.02878,0.00593
3724.10019,0.00672
3722.17161,0.00797
3720.24302,0.00920
3718.31443,0.01106
3716.38585,0.01328
3714.45726,0.01582
3712.52867,0.01851
3710.60009,0.02086
3708.67150,0.02395
3706.74291,0.02724
3704.81433,0.03078
3702.88574,0.03435
3700.95716,0.03711
3699.02857,0.03931
3697.09998,0.04051
3695.17140,0.04126
3693.24281,0.04182
3691.31422,0.04257
3689.38564,0.04339
3687.45705,0.04406
3685.52846,0.04590
3683.59988,0.04860
3681.67129,0.05168
3679.74271,0.05499
3677.81412,0.05890
3675.88553,0.06259
3673.95695,0.06591
3672.02836,0.07052
3670.09977,0.07471
3668.17119,0.07853
3666.24260,0.08325
3664.31402,0.08767
3662.38543,0.09188
3660.45684,0.09597
3658.52826,0.10018
3656.59967,0.10390
3654.67108,0.10690
3652.74250,0.11078
3650.81391,0.11439
3648.88532,0.11692
3646.95674,0.11946
3645.02815,0.12253
3643.09957,0.12572
3641.17098,0.12848
3639.24239,0.13118
3637.31381,0.13395
3635.38522,0.13690
3633.45663,0.13984
3631.52805,0.14295
3629.59946,0.14553
3627.67088,0.14649
3625.74229,0.14789
3623.81370,0.14959
3621.88512,0.15061
3619.95653,0.15062
3618.02794,0.14902
3616.09936,0.14773
3614.17077,0.14678
3612.24218,0.14559
3610.31360,0.14479
3608.38501,0.14394
3606.45643,0.14304
3604.52784,0.14234
3602.59925,0.14187
3600.67067,0.14143
3598.74208,0.14098
3596.81349,0.14054
3594.88491,0.14010
3592.95632,0.13994
3591.02774,0.14007
3589.09915,0.14024
3587.17056,0.14006
3585.24198,0.13999
3583.31339,0.14050
3581.38480,0.14108
3579.45622,0.14160
3577.52763,0.14230
3575.59904,0.14332
3573.67046,0.14431
3571.74187,0.14509
3569.81329,0.14609
3567.88470,0.14717
3565.95611,0.14793
3564.02753,0.14864
3562.09894,0.14973
3560.17035,0.15098
3558.24177,0.15201
3556.31318,0.15300
3554.38459,0.15423
3552.45601,0.15542
3550.52742,0.15635
3548.59884,0.15750
3546.67025,0.15866
3544.74166,0.15944
3542.81308,0.16045
3540.88449,0.16167
3538.95590,0.16286
3537.02732,0.16395
3535.09873,0.16499
3533.17015,0.16623
3531.24156,0.16742
3529.31297,0.16850
3527.38439,0.16954
3525.45580,0.17052
3523.52721,0.17159
3521.59863,0.17251
3519.67004,0.17338
3517.74145,0.17442
3515.81287,0.17534
3513.88428,0.17626
3511.95570,0.17736
3510.02711,0.17850
3508.09852,0.17967
3506.16994,0.18081
3504.24135,0.18177
3502.31276,0.18265
3500.38418,0.18372
3498.45559,0.18469
3496.52701,0.18555
3494.59842,0.18651
3492.66983,0.18737
3490.74125,0.18832
3488.81266,0.18932
3486.88407,0.19021
3484.95549,0.19113
3483.02690,0.19198
3481.09831,0.19272
3479.16973,0.19361
3477.24114,0.19460
3475.31256,0.19533
3473.38397,0.19613
3471.45538,0.19701
3469.52680,0.19764
3467.59821,0.19833
3465.66962,0.19911
3463.74104,0.20003
3461.81245,0.20078
3459.88386,0.20134
3457.95528,0.20205
3456.02669,0.20281
3454.09811,0.20358
3452.16952,0.20422
3450.24093,0.20491
3448.31235,0.20560
3446.38376,0.20613
3444.45517,0.20678
3442.52659,0.20750
3440.59800,0.20819
3438.66942,0.20878
3436.74083,0.20943
3434.81224,0.21013
3432.88366,0.21063
3430.95507,0.21114
3429.02648,0.21169
3427.09790,0.21224
3425.16931,0.21273
3423.24072,0.21310
3421.31214,0.21349
3419.38355,0.21392
3417.45497,0.21444
3415.52638,0.21496
3413.59779,0.21544
3411.66921,0.21579
3409.74062,0.21601
3407.81203,0.21629
3405.88345,0.21668
3403.95486,0.21709
3402.02628,0.21736
3400.09769,0.21766
3398.16910,0.21813
3396.24052,0.21850
3394.31193,0.21870
3392.38334,0.21889
3390.45476,0.21923
3388.52617,0.21938
3386.59758,0.21930
3384.66900,0.21954
3382.74041,0.21991
3380.81183,0.21999
3378.88324,0.21993
3376.95465,0.22017
3375.02607,0.22054
3373.09748,0.22051
3371.16889,0.22045
3369.24031,0.22071
3367.31172,0.22104
3365.38314,0.22127
3363.45455,0.22152
3361.52596,0.22167
3359.59738,0.22165
3357.66879,0.22171
3355.74020,0.22184
3353.81162,0.22193
3351.88303,0.22198
3349.95444,0.22207
3348.02586,0.22231
3346.09727,0.22252
3344.16869,0.22249
3342.24010,0.22231
3340.31151,0.22238
3338.38293,0.22253
3336.45434,0.22249
3334.52575,0.22238
3332.59717,0.22223
3330.66858,0.22216
3328.73999,0.22222
3326.81141,0.22233
3324.88282,0.22237
3322.95424,0.22224
3321.02565,0.22213
3319.09706,0.22204
3317.16848,0.22188
3315.23989,0.22162
3313.31130,0.22134
3311.38272,0.22134
3309.45413,0.22131
3307.52555,0.22097
3305.59696,0.22083
3303.66837,0.22073
3301.73979,0.22049
3299.81120,0.22044
3297.88261,0.22030
3295.95403,0.21995
3294.02544,0.21960
3292.09685,0.21922
3290.16827,0.21882
3288.23968,0.21844
3286.31110,0.21814
3284.38251,0.21773
3282.45392,0.21726
3280.52534,0.21685
3278.59675,0.21642
3276.66816,0.21586
3274.73958,0.21510
3272.81099,0.21437
3270.88241,0.21366
3268.95382,0.21284
3267.02523,0.21208
3265.09665,0.21131
3263.16806,0.21050
3261.23947,0.20961
3259.31089,0.20862
3257.38230,0.20773
3255.45371,0.20692
3253.52513,0.20605
3251.59654,0.20515
3249.66796,0.20430
3247.73937,0.20352
3245.81078,0.20267
3243.88220,0.20172
3241.95361,0.20094
3240.02502,0.20026
3238.09644,0.19951
3236.16785,0.19861
3234.23927,0.19770
3232.31068,0.19710
3230.38209,0.19634
3228.45351,0.19541
3226.52492,0.19472
3224.59633,0.19399
3222.66775,0.19314
3220.73916,0.19241
3218.81057,0.19178
3216.88199,0.19101
3214.95340,0.19023
3213.02482,0.18944
3211.09623,0.18862
3209.16764,0.18786
3207.23906,0.18703
3205.31047,0.18630
3203.38188,0.18554
3201.45330,0.18471
3199.52471,0.18397
3197.59612,0.18322
3195.66754,0.18243
3193.73895,0.18152
3191.81037,0.18060
3189.88178,0.17977
3187.95319,0.17913
3186.02461,0.17837
3184.09602,0.17740
3182.16743,0.17659
3180.23885,0.17574
3178.31026,0.17491
3176.38168,0.17421
3174.45309,0.17338
3172.52450,0.17248
3170.59592,0.17157
3168.66733,0.17068
3166.73874,0.16986
3164.81016,0.16910
3162.88157,0.16839
3160.95298,0.16763
3159.02440,0.16677
3157.09581,0.16592
3155.16723,0.16517
3153.23864,0.16443
3151.31005,0.16360
3149.38147,0.16286
3147.45288,0.16220
3145.52429,0.16150
3143.59571,0.16084
3141.66712,0.16015
3139.73854,0.15940
3137.80995,0.15871
3135.88136,0.15818
3133.95278,0.15770
3132.02419,0.15712
3130.09560,0.15656
3128.16702,0.15610
3126.23843,0.15567
3124.30984,0.15520
3122.38126,0.15468
3120.45267,0.15420
3118.52409,0.15368
3116.59550,0.15314
3114.66691,0.15258
3112.73833,0.15211
3110.80974,0.15174
3108.88115,0.15120
3106.95257,0.15070
3105.02398,0.15035
3103.09540,0.15000
3101.16681,0.14952
3099.23822,0.14907
3097.30964,0.14882
3095.38105,0.14852
3093.45246,0.14805
3091.52388,0.14761
3089.59529,0.14732
3087.66670,0.14693
3085.73812,0.14641
3083.80953,0.14598
3081.88095,0.14556
3079.95236,0.14516
3078.02377,0.14472
3076.09519,0.14429
3074.16660,0.14387
3072.23801,0.14328
3070.30943,0.14269
3068.38084,0.14219
3066.45225,0.14171
3064.52367,0.14112
3062.59508,0.14045
3060.66650,0.13980
3058.73791,0.13914
3056.80932,0.13850
3054.88074,0.13778
3052.95215,0.13716
3051.02356,0.13657
3049.09498,0.13583
3047.16639,0.13506
3045.23781,0.13444
3043.30922,0.13396
3041.38063,0.13345
3039.45205,0.13284
3037.52346,0.13222
3035.59487,0.13181
3033.66629,0.13141
3031.73770,0.13098
3029.80911,0.13062
3027.88053,0.13010
3025.95194,0.12964
3024.02336,0.12933
3022.09477,0.12906
3020.16618,0.12878
3018.23760,0.12843
3016.30901,0.12830
3014.38042,0.12840
3012.45184,0.12855
3010.52325,0.12868
3008.59467,0.12885
3006.66608,0.12914
3004.73749,0.12947
3002.80891,0.12986
3000.88032,0.13028
2998.95173,0.13081
2997.02315,0.13144
2995.09456,0.13211
2993.16597,0.13302
2991.23739,0.13416
2989.30880,0.13542
2987.38022,0.13677
2985.45163,0.13827
2983.52304,0.13990
2981.59446,0.14160
2979.66587,0.14352
2977.73728,0.14560
2975.80870,0.14779
2973.88011,0.15010
2971.95153,0.15253
2970.02294,0.15508
2968.09435,0.15772
2966.16577,0.16041
2964.23718,0.16307
2962.30859,0.16563
2960.38001,0.16805
2958.45142,0.17035
2956.52283,0.17245
2954.59425,0.17434
2952.66566,0.17616
2950.73708,0.17808
2948.80849,0.18047
2946.87990,0.18351
2944.95132,0.18717
2943.02273,0.19145
2941.09414,0.19628
2939.16556,0.20147
2937.23697,0.20682
2935.30838,0.21235
2933.37980,0.21791
2931.45121,0.22321
2929.52263,0.22804
2927.59404,0.23236
2925.66545,0.23598
2923.73687,0.23829
2921.80828,0.23899
2919.87969,0.23767
2917.95111,0.23332
2916.02252,0.22532
2914.09394,0.21475
2912.16535,0.20436
2910.23676,0.19597
2908.30818,0.18950
2906.37959,0.18437
2904.45100,0.18015
2902.52242,0.17654
2900.59383,0.17326
2898.66524,0.17005
2896.73666,0.16688
2894.80807,0.16398
2892.87949,0.16131
2890.95090,0.15858
2889.02231,0.15594
2887.09373,0.15362
2885.16514,0.15156
2883.23655,0.14987
2881.30797,0.14869
2879.37938,0.14773
2877.45080,0.14703
2875.52221,0.14692
2873.59362,0.14721
2871.66504,0.14754
2869.73645,0.14794
2867.80786,0.14873
2865.87928,0.15031
2863.95069,0.15281
2862.02210,0.15656
2860.09352,0.16188
2858.16493,0.16846
2856.23635,0.17520
2854.30776,0.18047
2852.37917,0.18277
2850.45059,0.18037
2848.52200,0.17204
2846.59341,0.15976
2844.66483,0.14744
2842.73624,0.13695
2840.80766,0.12832
2838.87907,0.12135
2836.95048,0.11582
2835.02190,0.11143
2833.09331,0.10784
2831.16472,0.10478
2829.23614,0.10211
2827.30755,0.09974
2825.37896,0.09775
2823.45038,0.09605
2821.52179,0.09446
2819.59321,0.09291
2817.66462,0.09134
2815.73603,0.08994
2813.80745,0.08879
2811.87886,0.08775
2809.95027,0.08668
2808.02169,0.08557
2806.09310,0.08462
2804.16451,0.08372
2802.23593,0.08279
2800.30734,0.08191
2798.37876,0.08118
2796.45017,0.08051
2794.52158,0.07970
2792.59300,0.07885
2790.66441,0.07814
2788.73582,0.07751
2786.80724,0.07685
2784.87865,0.07620
2782.95007,0.07559
2781.02148,0.07494
2779.09289,0.07430
2777.16431,0.07376
2775.23572,0.07324
2773.30713,0.07265
2771.37855,0.07210
2769.44996,0.07170
2767.52137,0.07123
2765.59279,0.07066
2763.66420,0.07018
2761.73562,0.06987
2759.80703,0.06960
2757.87844,0.06920
2755.94986,0.06880
2754.02127,0.06844
2752.09268,0.06806
2750.16410,0.06775
2748.23551,0.06741
2746.30693,0.06706
2744.37834,0.06676
2742.44975,0.06638
2740.52117,0.06594
2738.59258,0.06561
2736.66399,0.06533
2734.73541,0.06497
2732.80682,0.06465
2730.87823,0.06433
2728.94965,0.06394
2727.02106,0.06354
2725.09248,0.06315
2723.16389,0.06278
2721.23530,0.06234
2719.30672,0.06184
2717.37813,0.06137
2715.44954,0.06092
2713.52096,0.06051
2711.59237,0.06011
2709.66379,0.05975
2707.73520,0.05942
2705.80661,0.05903
2703.87803,0.05863
2701.94944,0.05822
2700.02085,0.05783
2698.09227,0.05756
2696.16368,0.05728
2694.23509,0.05691
2692.30651,0.05664
2690.37792,0.05640
2688.44934,0.05607
2686.52075,0.05577
2684.59216,0.05554
2682.66358,0.05525
2680.73499,0.05489
2678.80640,0.05450
2676.87782,0.05419
2674.94923,0.05399
2673.02064,0.05366
2671.09206,0.05325
2669.16347,0.05290
2667.23489,0.05258
2665.30630,0.05226
2663.37771,0.05190
2661.44913,0.05158
2659.52054,0.05124
2657.59195,0.05090
2655.66337,0.05059
2653.73478,0.05033
2651.80620,0.05009
2649.87761,0.04980
2647.94902,0.04944
2646.02044,0.04911
2644.09185,0.04882
2642.16326,0.04849
2640.23468,0.04818
2638.30609,0.04798
2636.37750,0.04778
2634.44892,0.04747
2632.52033,0.04713
2630.59175,0.04686
2628.66316,0.04658
2626.73457,0.04624
2624.80599,0.04591
2622.87740,0.04561
2620.94881,0.04530
2619.02023,0.04499
2617.09164,0.04468
2615.16306,0.04439
2613.23447,0.04408
2611.30588,0.04373
2609.37730,0.04345
2607.44871,0.04320
2605.52012,0.04287
2603.59154,0.04252
2601.66295,0.04219
2599.73436,0.04189
2597.80578,0.04164
2595.87719,0.04131
2593.94861,0.04093
2592.02002,0.04059
2590.09143,0.04025
2588.16285,0.03998
2586.23426,0.03974
2584.30567,0.03940
2582.37709,0.03906
2580.44850,0.03873
2578.51991,0.03842
2576.59133,0.03819
2574.66274,0.03794
2572.73416,0.03764
2570.80557,0.03736
2568.87698,0.03710
2566.94840,0.03678
2565.01981,0.03648
2563.09122,0.03622
2561.16264,0.03590
2559.23405,0.03564
2557.30547,0.03545
2555.37688,0.03523
2553.44829,0.03493
2551.51971,0.03464
2549.59112,0.03445
2547.66253,0.03427
2545.73395,0.03398
2543.80536,0.03368
2541.87677,0.03347
2539.94819,0.03328
2538.01960,0.03304
2536.09102,0.03283
2534.16243,0.03259
2532.23384,0.03239
2530.30526,0.03221
2528.37667,0.03199
2526.44808,0.03174
2524.51950,0.03142
2522.59091,0.03110
2520.66233,0.03087
2518.73374,0.03066
2516.80515,0.03038
2514.87657,0.03010
2512.94798,0.02984
2511.01939,0.02958
2509.09081,0.02933
2507.16222,0.02908
2505.23363,0.02881
2503.30505,0.02853
2501.37646,0.02826
2499.44788,0.02805
2497.51929,0.02783
2495.59070,0.02746
2493.66212,0.02708
2491.73353,0.02685
2489.80494,0.02663
2487.87636,0.02633
2485.94777,0.02601
2484.01919,0.02572
2482.09060,0.02551
2480.16201,0.02523
2478.23343,0.02494
2476.30484,0.02476
2474.37625,0.02448
2472.44767,0.02415
2470.51908,0.02390
2468.59049,0.02363
2466.66191,0.02330
2464.73332,0.02300
2462.80474,0.02271
2460.87615,0.02237
2458.94756,0.02207
2457.01898,0.02188
2455.09039,0.02164
2453.16180,0.02136
2451.23322,0.02114
2449.30463,0.02090
2447.37604,0.02062
2445.44746,0.02034
2443.51887,0.02005
2441.59029,0.01973
2439.66170,0.01942
2437.73311,0.01915
2435.80453,0.01888
2433.87594,0.01860
2431.94735,0.01832
2430.01877,0.01805
2428.09018,0.01779
2426.16160,0.01752
2424.23301,0.01724
2422.30442,0.01702
2420.37584,0.01682
2418.44725,0.01660
2416.51866,0.01628
2414.59008,0.01597
2412.66149,0.01570
2410.73290,0.01540
2408.80432,0.01517
2406.87573,0.01498
2404.94715,0.01467
2403.01856,0.01438
2401.08997,0.01411
2399.16139,0.01385
2397.23280,0.01361
2395.30421,0.01340
2393.37563,0.01323
2391.44704,0.01301
2389.51846,0.01271
2387.58987,0.01245
2385.66128,0.01221
2383.73270,0.01200
2381.80411,0.01182
2379.87552,0.01164
2377.94694,0.01141
2376.01835,0.01118
2374.08976,0.01099
2372.16118,0.01087
2370.23259,0.01066
2368.30401,0.01035
2366.37542,0.01007
2364.44683,0.00976
2362.51825,0.00951
2360.58966,0.00936
2358.66107,0.00916
2356.73249,0.00895
2354.80390,0.00875
2352.87532,0.00851
2350.94673,0.00839
2349.01814,0.00855
2347.08956,0.00863
2345.16097,0.00842
2343.23238,0.00820
2341.30380,0.00811
2339.37521,0.00806
2337.44662,0.00786
2335.51804,0.00753
2333.58945,0.00730
2331.66087,0.00718
2329.73228,0.00705
2327.80369,0.00686
2325.87511,0.00662
2323.94652,0.00642
2322.01793,0.00635
2320.08935,0.00627
2318.16076,0.00607
2316.23217,0.00593
2314.30359,0.00583
2312.37500,0.00577
2310.44642,0.00566
2308.51783,0.00551
2306.58924,0.00535
2304.66066,0.00521
2302.73207,0.00508
2300.80348,0.00490
2298.87490,0.00483
2296.94631,0.00474
2295.01773,0.00453
2293.08914,0.00445
2291.16055,0.00436
2289.23197,0.00422
2287.30338,0.00408
2285.37479,0.00393
2283.44621,0.00381
2281.51762,0.00369
2279.58903,0.00362
2277.66045,0.00365
2275.73186,0.00365
2273.80328,0.00353
2271.87469,0.00331
2269.94610,0.00315
2268.01752,0.00308
2266.08893,0.00297
2264.16034,0.00282
2262.23176,0.00271
2260.30317,0.00266
2258.37459,0.00262
2256.44600,0.00253
2254.51741,0.00242
2252.58883,0.00237
2250.66024,0.00231
2248.73165,0.00219
2246.80307,0.00206
2244.87448,0.00200
2242.94589,0.00196
2241.01731,0.00193
2239.08872,0.00192
2237.16014,0.00181
2235.23155,0.00169
2233.30296,0.00161
2231.37438,0.00155
2229.44579,0.00154
2227.51720,0.00147
2225.58862,0.00136
2223.66003,0.00131
2221.73145,0.00127
2219.80286,0.00113
2217.87427,0.00097
2215.94569,0.00091
2214.01710,0.00086
2212.08851,0.00080
2210.15993,0.00074
2208.23134,0.00067
2206.30275,0.00054
2204.37417,0.00047
2202.44558,0.00054
2200.51700,0.00056
2198.58841,0.00048
2196.65982,0.00042
2194.73124,0.00041
2192.80265,0.00036
2190.87406,0.00029
2188.94548,0.00026
2187.01689,0.00028
2185.08830,0.00031
2183.15972,0.00030
2181.23113,0.00026
2179.30255,0.00028
2177.37396,0.00026
2175.44537,0.00023
2173.51679,0.00022
2171.58820,0.00011
2169.65961,0.00000
2167.73103,0.00012
2165.80244,0.00027
2163.87386,0.00030
2161.94527,0.00032
2160.01668,0.00027
2158.08810,0.00023
2156.15951,0.00030
2154.23092,0.00039
2152.30234,0.00033
2150.37375,0.00031
2148.44516,0.00037
2146.51658,0.00036
2144.58799,0.00030
2142.65941,0.00033
2140.73082,0.00037
2138.80223,0.00036
2136.87365,0.00031
2134.94506,0.00026
2133.01647,0.00024
2131.08789,0.00024
2129.15930,0.00024
2127.23072,0.00025
2125.30213,0.00025
2123.37354,0.00026
2121.44496,0.00025
2119.51637,0.00023
2117.58778,0.00019
2115.65920,0.00012
2113.73061,0.00009
2111.80202,0.00003
2109.87344,0.00000
2107.94485,0.00007
2106.01627,0.00006
2104.08768,0.00004
2102.15909,0.00010
2100.23051,0.00010
2098.30192,0.00007
2096.37333,0.00007
2094.44475,0.00005
2092.51616,0.00002
2090.58758,0.00009
2088.65899,0.00010
2086.73040,0.00010
2084.80182,0.00013
2082.87323,0.00007
2080.94464,0.00005
2079.01606,0.00003
2077.08747,0.00000
2075.15888,0.00000
2073.23030,0.00002
2071.30171,0.00010
2069.37313,0.00009
2067.44454,-0.00006
2065.51595,-0.00011
2063.58737,-0.00002
2061.65878,0.00005
2059.73019,0.00002
2057.80161,-0.00001
2055.87302,0.00005
2053.94443,0.00013
2052.01585,0.00016
2050.08726,0.00020
2048.15868,0.00023
2046.23009,0.00029
2044.30150,0.00053
2042.37292,0.00077
2040.44433,0.00098
2038.51574,0.00118
2036.58716,0.00135
2034.65857,0.00153
2032.72999,0.00170
2030.80140,0.00183
2028.87281,0.00186
2026.94423,0.00194
2025.01564,0.00203
2023.08705,0.00203
2021.15847,0.00204
2019.22988,0.00210
2017.30129,0.00221
2015.37271,0.00234
2013.44412,0.00253
2011.51554,0.00278
2009.58695,0.00298
2007.65836,0.00316
2005.72978,0.00326
2003.80119,0.00336
2001.87260,0.00345
1999.94402,0.00345
1998.01543,0.00344
1996.08685,0.00346
1994.15826,0.00348
1992.22967,0.00340
1990.30109,0.00322
1988.37250,0.00306
1986.44391,0.00299
1984.51533,0.00294
1982.58674,0.00285
1980.65815,0.00281
1978.72957,0.00277
1976.80098,0.00273
1974.87240,0.00263
1972.94381,0.00251
1971.01522,0.00242
1969.08664,0.00228
1967.15805,0.00206
1965.22946,0.00179
1963.30088,0.00163
1961.37229,0.00143
1959.44371,0.00122
1957.51512,0.00116
1955.58653,0.00112
1953.65795,0.00104
1951.72936,0.00094
1949.80077,0.00092
1947.87219,0.00084
1945.94360,0.00070
1944.01501,0.00060
1942.08643,0.00042
1940.15784,0.00033
1938.22926,0.00036
1936.30067,0.00025
1934.37208,0.00010
1932.44350,0.00000
1930.51491,-0.00004
1928.58632,-0.00002
1926.65774,0.00004
1924.72915,0.00000
1922.80056,-0.00010
1920.87198,0.00003
1918.94339,0.00025
1917.01481,0.00036
1915.08622,0.00054
1913.15763,0.00087
1911.22905,0.00124
1909.30046,0.00171
1907.37187,0.00217
1905.44329,0.00264
1903.51470,0.00324
1901.58612,0.00372
1899.65753,0.00415
1897.72894,0.00466
1895.80036,0.00519
1893.87177,0.00563
1891.94318,0.00598
1890.01460,0.00634
1888.08601,0.00663
1886.15742,0.00691
1884.22884,0.00713
1882.30025,0.00731
1880.37167,0.00745
1878.44308,0.00752
1876.51449,0.00772
1874.58591,0.00781
1872.65732,0.00782
1870.72873,0.00784
1868.80015,0.00766
1866.87156,0.00736
1864.94298,0.00706
1863.01439,0.00660
1861.08580,0.00595
1859.15722,0.00530
1857.22863,0.00456
1855.30004,0.00378
1853.37146,0.00304
1851.44287,0.00235
1849.51428,0.00170
1847.58570,0.00121
1845.65711,0.00088
1843.72853,0.00035
1841.79994,0.00000
1839.87135,-0.00019
1837.94277,-0.00051
1836.01418,-0.00076
1834.08559,-0.00082
1832.15701,-0.00071
1830.22842,-0.00065
1828.29984,-0.00061
1826.37125,-0.00031
1824.44266,-0.00006
1822.51408,0.00022
1820.58549,0.00070
1818.65690,0.00129
1816.72832,0.00192
1814.79973,0.00264
1812.87114,0.00348
1810.94256,0.00433
1809.01397,0.00532
1807.08539,0.00649
1805.15680,0.00779
1803.22821,0.00918
1801.29963,0.01066
1799.37104,0.01219
1797.44245,0.01383
1795.51387,0.01572
1793.58528,0.01771
1791.65669,0.01960
1789.72811,0.02158
1787.79952,0.02384
1785.87094,0.02613
1783.94235,0.02839
1782.01376,0.03065
1780.08518,0.03288
1778.15659,0.03510
1776.22800,0.03732
1774.29942,0.03964
1772.37083,0.04160
1770.44225,0.04336
1768.51366,0.04537
1766.58507,0.04729
1764.65649,0.04941
1762.72790,0.05157
1760.79931,0.05364
1758.87073,0.05605
1756.94214,0.05872
1755.01355,0.06164
1753.08497,0.06484
1751.15638,0.06822
1749.22780,0.07183
1747.29921,0.07591
1745.37062,0.08028
1743.44204,0.08483
1741.51345,0.08955
1739.58486,0.09409
1737.65628,0.09838
1735.72769,0.10252
1733.79911,0.10595
1731.87052,0.10873
1729.94193,0.11173
1728.01335,0.11461
1726.08476,0.11742
1724.15617,0.12030
1722.22759,0.12316
1720.29900,0.12637
1718.37041,0.12941
1716.44183,0.13200
1714.51324,0.13444
1712.58466,0.13677
1710.65607,0.13895
1708.72748,0.14091
1706.79890,0.14282
1704.87031,0.14460
1702.94172,0.14681
1701.01314,0.14918
1699.08455,0.15120
1697.15596,0.15381
1695.22738,0.15633
1693.29879,0.15857
1691.37021,0.16118
1689.44162,0.16373
1687.51303,0.16657
1685.58445,0.16938
1683.65586,0.17154
1681.72727,0.17406
1679.79869,0.17697
1677.87010,0.17985
1675.94152,0.18245
1674.01293,0.18466
1672.08434,0.18702
1670.15576,0.18917
1668.22717,0.19081
1666.29858,0.19245
1664.37000,0.19413
1662.44141,0.19541
1660.51282,0.19635
1658.58424,0.19708
1656.65565,0.19765
1654.72707,0.19833
1652.79848,0.19780
1650.86989,0.19704
1648.94131,0.19741
1647.01272,0.19724
1645.08413,0.19659
1643.15555,0.19640
1641.22696,0.19645
1639.29838,0.19656
1637.36979,0.19679
1635.44120,0.19644
1633.51262,0.19570
1631.58403,0.19542
1629.65544,0.19478
1627.72686,0.19368
1625.79827,0.19223
1623.86968,0.19034
1621.94110,0.18816
1620.01251,0.18631
1618.08393,0.18476
1616.15534,0.18248
1614.22675,0.18041
1612.29817,0.17871
1610.36958,0.17687
1608.44099,0.17515
1606.51241,0.17373
1604.58382,0.17252
1602.65524,0.17097
1600.72665,0.16939
1598.79806,0.16784
1596.86948,0.16641
1594.94089,0.16497
1593.01230,0.16325
1591.08372,0.16153
1589.15513,0.15957
1587.22654,0.15757
1585.29796,0.15552
1583.36937,0.15349
1581.44079,0.15142
1579.51220,0.14953
1577.58361,0.14800
1575.65503,0.14592
1573.72644,0.14433
1571.79785,0.14360
1569.86927,0.14262
1567.94068,0.14160
1566.01209,0.14107
1564.08351,0.14077
1562.15492,0.14089
1560.22634,0.14122
1558.29775,0.14066
1556.36916,0.14050
1554.44058,0.14083
1552.51199,0.14073
1550.58340,0.14069
1548.65482,0.14050
1546.72623,0.14037
1544.79765,0.14012
1542.86906,0.13969
1540.94047,0.13926
1539.01189,0.13804
1537.08330,0.13700
1535.15471,0.13634
1533.22613,0.13529
1531.29754,0.13396
1529.36895,0.13279
1527.44037,0.13173
1525.51178,0.13049
1523.58320,0.12964
1521.65461,0.12900
1519.72602,0.12860
1517.79744,0.12846
1515.86885,0.12771
1513.94026,0.12621
1512.01168,0.12407
1510.08309,0.12172
1508.15451,0.11940
1506.22592,0.11598
1504.29733,0.11203
1502.36875,0.10869
1500.44016,0.10528
1498.51157,0.10168
1496.58299,0.09798
1494.65440,0.09444
1492.72581,0.09179
1490.79723,0.08949
1488.86864,0.08730
1486.94006,0.08578
1485.01147,0.08489
1483.08288,0.08471
1481.15430,0.08515
1479.22571,0.08634
1477.29712,0.08863
1475.36854,0.09202
1473.43995,0.09666
1471.51137,0.10238
1469.58278,0.10853
1467.65419,0.11377
1465.72561,0.11682
1463.79702,0.11819
1461.86843,0.11890
1459.93985,0.11958
1458.01126,0.12042
1456.08267,0.12078
1454.15409,0.12079
1452.22550,0.12058
1450.29692,0.12014
1448.36833,0.11966
1446.43974,0.11908
1444.51116,0.11862
1442.58257,0.11832
1440.65398,0.11809
1438.72540,0.11810
1436.79681,0.11803
1434.86822,0.11775
1432.93964,0.11771
1431.01105,0.11787
1429.08247,0.11795
1427.15388,0.11801
1425.22529,0.11832
1423.29671,0.11885
1421.36812,0.11936
1419.43953,0.11960
1417.51095,0.11943
1415.58236,0.11931
1413.65378,0.11917
1411.72519,0.11883
1409.79660,0.11845
1407.86802,0.11797
1405.93943,0.11740
1404.01084,0.11664
1402.08226,0.11590
1400.15367,0.11499
1398.22508,0.11386
1396.29650,0.11293
1394.36791,0.11193
1392.43933,0.11103
1390.51074,0.11061
1388.58215,0.11037
1386.65357,0.10981
1384.72498,0.10930
1382.79639,0.10979
1380.86781,0.11069
1378.93922,0.11103
1377.01064,0.11080
1375.08205,0.11008
1373.15346,0.10903
1371.22488,0.10782
1369.29629,0.10655
1367.36770,0.10514
1365.43912,0.10361
1363.51053,0.10213
1361.58194,0.10082
1359.65336,0.09969
1357.72477,0.09865
1355.79619,0.09774
1353.86760,0.09688
1351.93901,0.09602
1350.01043,0.09524
1348.08184,0.09446
1346.15325,0.09372
1344.22467,0.09314
1342.29608,0.09271
1340.36750,0.09229
1338.43891,0.09173
1336.51032,0.09120
1334.58174,0.09080
1332.65315,0.09028
1330.72456,0.08977
1328.79598,0.08945
1326.86739,0.08920
1324.93880,0.08891
1323.01022,0.08854
1321.08163,0.08816
1319.15305,0.08784
1317.22446,0.08760
1315.29587,0.08737
1313.36729,0.08704
1311.43870,0.08672
1309.51011,0.08648
1307.58153,0.08614
1305.65294,0.08577
1303.72435,0.08556
1301.79577,0.08548
1299.86718,0.08544
1297.93860,0.08548
1296.01001,0.08572
1294.08142,0.08614
1292.15284,0.08675
1290.22425,0.08760
1288.29566,0.08867
1286.36708,0.08995
1284.43849,0.09146
1282.50991,0.09306
1280.58132,0.09463
1278.65273,0.09620
1276.72415,0.09784
1274.79556,0.09961
1272.86697,0.10139
1270.93839,0.10316
1269.00980,0.10500
1267.08121,0.10678
1265.15263,0.10865
1263.22404,0.11078
1261.29546,0.11318
1259.36687,0.11595
1257.43828,0.11925
1255.50970,0.12326
1253.58111,0.12763
1251.65252,0.13218
1249.72394,0.13696
1247.79535,0.14160
1245.86677,0.14597
1243.93818,0.15024
1242.00959,0.15430
1240.08101,0.15796
1238.15242,0.16146
1236.22383,0.16479
1234.29525,0.16774
1232.36666,0.17038
1230.43807,0.17268
1228.50949,0.17496
1226.58090,0.17737
1224.65232,0.17952
1222.72373,0.18137
1220.79514,0.18315
1218.86656,0.18508
1216.93797,0.18709
1215.00938,0.18896
1213.08080,0.19081
1211.15221,0.19281
1209.22363,0.19470
1207.29504,0.19642
1205.36645,0.19804
1203.43787,0.19963
1201.50928,0.20123
1199.58069,0.20260
1197.65211,0.20400
1195.72352,0.20567
1193.79493,0.20715
1191.86635,0.20846
1189.93776,0.20981
1188.00918,0.21116
1186.08059,0.21250
1184.15200,0.21406
1182.22342,0.21587
1180.29483,0.21784
1178.36624,0.22022
1176.43766,0.22286
1174.50907,0.22555
1172.58048,0.22813
1170.65190,0.23081
1168.72331,0.23380
1166.79473,0.23676
1164.86614,0.23959
1162.93755,0.24198
1161.00897,0.24368
1159.08038,0.24492
1157.15179,0.24578
1155.22321,0.24678
1153.29462,0.24795
1151.36604,0.24933
1149.43745,0.25131
1147.50886,0.25335
1145.58028,0.25540
1143.65169,0.25779
1141.72310,0.26034
1139.79452,0.26340
1137.86593,0.26707
1135.93734,0.27095
1134.00876,0.27504
1132.08017,0.27893
1130.15159,0.28276
1128.22300,0.28753
1126.29441,0.29311
1124.36583,0.29836
1122.43724,0.30336
1120.50865,0.30881
1118.58007,0.31439
1116.65148,0.32019
1114.72290,0.32628
1112.79431,0.33220
1110.86572,0.33797
1108.93714,0.34374
1107.00855,0.34890
1105.07996,0.35308
1103.15138,0.35667
1101.22279,0.35926
1099.29420,0.36107
1097.36562,0.36248
1095.43703,0.36303
1093.50845,0.36306
1091.57986,0.36278
1089.65127,0.36219
1087.72269,0.36150
1085.79410,0.36070
1083.86551,0.35948
1081.93693,0.35796
1080.00834,0.35657
1078.07976,0.35519
1076.15117,0.35383
1074.22258,0.35239
1072.29400,0.35103
1070.36541,0.35002
1068.43682,0.34937
1066.50824,0.34874
1064.57965,0.34764
1062.65106,0.34688
1060.72248,0.34628
1058.79389,0.34500
1056.86531,0.34332
1054.93672,0.34163
1053.00813,0.34024
1051.07955,0.33893
1049.15096,0.33828
1047.22237,0.33876
1045.29379,0.33993
1043.36520,0.34165
1041.43661,0.34354
1039.50803,0.34552
1037.57944,0.34701
1035.65086,0.34785
1033.72227,0.34836
1031.79368,0.34814
1029.86510,0.34712
1027.93651,0.34475
1026.00792,0.34159
1024.07934,0.33872
1022.15075,0.33550
1020.22217,0.33201
1018.29358,0.32879
1016.36499,0.32577
1014.43641,0.32270
1012.50782,0.31926
1010.57923,0.31585
1008.65065,0.31253
1006.72206,0.30869
1004.79347,0.30426
1002.86489,0.29956
1000.93630,0.29463
999.00772,0.28939
997.07913,0.28393
995.15054,0.27817
993.22196,0.27219
991.29337,0.26616
989.36478,0.25984
987.43620,0.25303
985.50761,0.24590
983.57903,0.23853
981.65044,0.23060
979.72185,0.22198
977.79327,0.21270
975.86468,0.20312
973.93609,0.19391
972.00751,0.18484
970.07892,0.17571
968.15033,0.16707
966.22175,0.15921
964.29316,0.15187
962.36458,0.14493
960.43599,0.13884
958.50740,0.13349
956.57882,0.12853
954.65023,0.12421
952.72164,0.12056
950.79306,0.11737
948.86447,0.11463
946.93589,0.11235
945.00730,0.11031
943.07871,0.10857
941.15013,0.10716
939.22154,0.10555
937.29295,0.10415
935.36437,0.10320
933.43578,0.10196
931.50719,0.10052
929.57861,0.09922
927.65002,0.09794
925.72144,0.09687
923.79285,0.09628
921.86426,0.09606
919.93568,0.09586
918.00709,0.09550
916.07850,0.09526
914.14992,0.09478
912.22133,0.09332
910.29274,0.09063
908.36416,0.08652
906.43557,0.08155
904.50699,0.07608
902.57840,0.07030
900.64981,0.06493
898.72123,0.05970
896.79264,0.05462
894.86405,0.04998
892.93547,0.04590
891.00688,0.04253
889.07830,0.03912
887.14971,0.03579
885.22112,0.03302
883.29254,0.03049
881.36395,0.02778
879.43536,0.02495
877.50678,0.02238
875.57819,0.01954
873.64960,0.01651
871.72102,0.01388
869.79243,0.01134
867.86385,0.00892
865.93526,0.00662
864.00667,0.00439
862.07809,0.00265
860.14950,0.00148
858.22091,0.00061
856.29233,0.00000
854.36374,-0.00011
852.43516,0.00010
850.50657,0.00013
848.57798,0.00064
846.64940,0.00166
844.72081,0.00318
842.79222,0.00557
840.86364,0.00806
838.93505,0.01098
837.00646,0.01469
835.07788,0.01816
833.14929,0.02098
831.22071,0.02295
829.29212,0.02469
827.36353,0.02605
825.43495,0.02653
823.50636,0.02710
821.57777,0.02795
819.64919,0.02871
817.72060,0.02937
815.79201,0.03079
813.86343,0.03337
811.93484,0.03649
810.00626,0.04022
808.07767,0.04530
806.14908,0.05202
804.22050,0.05874
802.29191,0.06377
800.36332,0.06632
798.43474,0.06559
796.50615,0.06235
794.57757,0.05776
792.64898,0.05308
790.72039,0.04937
788.79181,0.04669
786.86322,0.04514
784.93463,0.04479
783.00605,0.04546
781.07746,0.04634
779.14887,0.04526
777.22029,0.04105
775.29170,0.03556
773.36312,0.03059
771.43453,0.02621
769.50594,0.02298
767.57736,0.02152
765.64877,0.02081
763.72018,0.02004
761.79160,0.01981
759.86301,0.02005
757.93443,0.02027
756.00584,0.02034
754.07725,0.02026
752.14867,0.01973
750.22008,0.01843
748.29149,0.01701
746.36291,0.01541
744.43432,0.01342
742.50573,0.01125
740.57715,0.00909
738.64856,0.00722
736.71998,0.00513
734.79139,0.00364
732.86280,0.00329
730.93422,0.00288
729.00563,0.00252
727.07704,0.00272
725.14846,0.00318
723.21987,0.00348
721.29129,0.00367
719.36270,0.00317
717.43411,0.00143
715.50553,0.00000
713.57694,0.00006
711.64835,0.00078
709.71977,0.00137
707.79118,0.00261
705.86259,0.00439
703.93401,0.00631
702.00542,0.00922
700.07684,0.01258
698.14825,0.01614
696.21966,0.01925
694.29108,0.01937
692.36249,0.01672
690.43390,0.01312
688.50532,0.01004
686.57673,0.00843
684.64814,0.00717
682.71956,0.00577
680.79097,0.00490
678.86239,0.00434
676.93380,0.00370
675.00521,0.00307
673.07663,0.00251
671.14804,0.00174
669.21945,0.00070
667.29087,0.00000
665.36228,0.00030
663.43370,0.00039
661.50511,-0.00095
659.57652,-0.00152
657.64794,-0.00053
655.71935,0.00023
653.79076,0.00028
651.86218,0.00071
649.93359,0.00202
648.00500,0.00237
646.07642,0.00240
644.14783,0.00308
642.21925,0.00361
640.29066,0.00481
638.36207,0.00503
636.43349,0.00432
634.50490,0.00471
632.57631,0.00478
630.64773,0.00500
628.71914,0.00601
626.79056,0.00687
624.86197,0.00818
622.93338,0.00934
621.00480,0.00943
619.07621,0.00969
617.14762,0.01050
615.21904,0.01171
613.29045,0.01329
611.36186,0.01399
609.43328,0.01461
607.50469,0.01575
605.57611,0.01649
603.64752,0.01767
601.71893,0.01923
599.79035,0.02091
597.86176,0.02320
595.93317,0.02577
594.00459,0.02838
592.07600,0.03113
590.14742,0.03460
588.21883,0.03828
586.29024,0.04148
584.36166,0.04489
582.43307,0.04931
580.50448,0.05429
578.57590,0.05758
576.64731,0.06030
574.71872,0.06482
572.79014,0.06891
570.86155,0.07301
568.93297,0.07918
567.00438,0.08474
565.07579,0.08956
563.14721,0.09523
561.21862,0.09983
559.29003,0.10449
557.36145,0.11014
555.43286,0.11327
553.50427,0.11477
551.57569,0.11763
549.64710,0.12244
547.71852,0.12771
545.78993,0.13172
543.86134,0.13727
541.93276,0.14338
540.00417,0.14734
538.07558,0.15152
536.14700,0.15559
534.21841,0.15776
532.28983,0.15860
530.36124,0.16001
528.43265,0.16169
526.50407,0.16046
524.57548,0.15720
522.64689,0.15433
520.71831,0.15144
518.78972,0.14887
516.86113,0.14487
514.93255,0.13769
513.00396,0.13232
511.07538,0.12946
509.14679,0.12476
507.21820,0.12139
505.28962,0.12229
503.36103,0.12327
501.43244,0.12309
499.50386,0.12602
497.57527,0.13293
495.64669,0.13986
493.71810,0.14581
491.78951,0.15444
489.86093,0.16621
487.93234,0.17818
486.00375,0.18955
484.07517,0.20176
482.14658,0.21466
480.21799,0.22374
478.28941,0.22985
476.36082,0.23645
474.43224,0.24066
472.50365,0.24201
470.57506,0.23988
468.64648,0.23297
466.71789,0.22554
464.78930,0.21545
462.86072,0.19923
460.93213,0.18641
459.00355,0.17785
457.07496,0.16740
455.14637,0.15580
453.21779,0.14431
451.28920,0.13620
449.36061,0.12914
447.43203,0.12088
445.50344,0.11332
443.57485,0.10665
441.64627,0.10329
439.71768,0.10029
437.78910,0.09476
435.86051,0.09032
433.93192,0.08668
432.00334,0.08668
430.07475,0.09119
428.14616,0.08820
426.21758,0.08399
424.28899,0.08187
422.36040,0.06917
420.43182,0.05837
418.50323,0.05158
416.57465,0.04231
414.64606,0.03486
412.71747,0.03248
410.78889,0.03479
408.86030,0.03067
406.93171,0.01968
405.00313,0.00802
403.07454,0.00194
401.14596,0.00000
399.21737,0.00000
