3747.24323,0.00186
3745.31464,0.00609
3743.38605,0.00071
3741.45747,0.00000
3739.52888,0.00523
3737.60030,0.00740
3735.67171,0.00618
3733.74312,0.00443
3731.81454,0.00432
3729.88595,0.00493
3727.95736,0.00757
3726.02878,0.00905
3724.10019,0.00881
3722.17161,0.01024
3720.24302,0.01077
3718.31443,0.01244
3716.38585,0.01439
3714.45726,0.01776
3712.52867,0.02069
3710.60009,0.01923
3708.67150,0.02110
3706.74291,0.02428
3704.81433,0.02857
3702.88574,0.03231
3700.95716,0.03252
3699.02857,0.03402
3697.09998,0.03545
3695.17140,0.03690
3693.24281,0.03803
3691.31422,0.03971
3689.38564,0.03972
3687.45705,0.03691
3685.52846,0.03885
3683.59988,0.04258
3681.67129,0.04606
3679.74271,0.04887
3677.81412,0.05389
3675.88553,0.05692
3673.95695,0.05509
3672.02836,0.06160
3670.09977,0.06621
3668.17119,0.06619
3666.24260,0.07119
3664.31402,0.07616
3662.38543,0.08052
3660.45684,0.08405
3658.52826,0.08853
3656.59967,0.09148
3654.67108,0.09206
3652.74250,0.09783
3650.81391,0.10274
3648.88532,0.10228
3646.95674,0.10175
3645.02815,0.10480
3643.09957,0.10932
3641.17098,0.11212
3639.24239,0.11463
3637.31381,0.11712
3635.38522,0.12002
3633.45663,0.12240
3631.52805,0.12645
3629.59946,0.12974
3627.67088,0.12577
3625.74229,0.12679
3623.81370,0.13091
3621.88512,0.13306
3619.95653,0.13364
3618.02794,0.12988
3616.09936,0.12913
3614.17077,0.13008
3612.24218,0.12911
3610.31360,0.12913
3608.38501,0.12796
3606.45643,0.12642
3604.52784,0.12672
3602.59925,0.12729
3600.67067,0.12703
3598.74208,0.12706
3596.81349,0.12744
3594.88491,0.12712
3592.95632,0.12671
3591.02774,0.12778
3589.09915,0.12937
3587.17056,0.12816
3585.24198,0.12697
3583.31339,0.12832
3581.38480,0.12976
3579.45622,0.13077
3577.52763,0.13162
3575.59904,0.13253
3573.67046,0.13345
3571.74187,0.13470
3569.81329,0.13680
3567.88470,0.13775
3565.95611,0.13685
3564.02753,0.13766
3562.09894,0.13980
3560.17035,0.14101
3558.24177,0.14211
3556.31318,0.14328
3554.38459,0.14475
3552.45601,0.14597
3550.52742,0.14646
3548.59884,0.14793
3546.67025,0.14922
3544.74166,0.14982
3542.81308,0.15074
3540.88449,0.15195
3538.95590,0.15346
3537.02732,0.15444
3535.09873,0.15532
3533.17015,0.15658
3531.24156,0.15758
3529.31297,0.15826
3527.38439,0.15915
3525.45580,0.16045
3523.52721,0.16151
3521.59863,0.16233
3519.67004,0.16324
3517.74145,0.16431
3515.81287,0.16556
3513.88428,0.16675
3511.95570,0.16773
3510.02711,0.16846
3508.09852,0.16902
3506.16994,0.17016
3504.24135,0.17161
3502.31276,0.17212
3500.38418,0.17267
3498.45559,0.17393
3496.52701,0.17488
3494.59842,0.17547
3492.66983,0.17631
3490.74125,0.17747
3488.81266,0.17827
3486.88407,0.17905
3484.95549,0.17989
3483.02690,0.18052
3481.09831,0.18106
3479.16973,0.18157
3477.24114,0.18243
3475.31256,0.18330
3473.38397,0.18405
3471.45538,0.18467
3469.52680,0.18544
3467.59821,0.18624
3465.66962,0.18653
3463.74104,0.18738
3461.81245,0.18824
3459.88386,0.18875
3457.95528,0.18927
3456.02669,0.18968
3454.09811,0.19048
3452.16952,0.19114
3450.24093,0.19190
3448.31235,0.19259
3446.38376,0.19276
3444.45517,0.19315
3442.52659,0.19379
3440.59800,0.19453
3438.66942,0.19511
3436.74083,0.19541
3434.81224,0.19581
3432.88366,0.19638
3430.95507,0.19687
3429.02648,0.19737
3427.09790,0.19789
3425.16931,0.19820
3423.24072,0.19881
3421.31214,0.19949
3419.38355,0.19975
3417.45497,0.19989
3415.52638,0.19997
3413.59779,0.20039
3411.66921,0.20101
3409.74062,0.20128
3407.81203,0.20137
3405.88345,0.20161
3403.95486,0.20197
3402.02628,0.20226
3400.09769,0.20239
3398.16910,0.20241
3396.24052,0.20264
3394.31193,0.20305
3392.38334,0.20327
3390.45476,0.20342
3388.52617,0.20374
3386.59758,0.20406
3384.66900,0.20416
3382.74041,0.20417
3380.81183,0.20430
3378.88324,0.20460
3376.95465,0.20510
3375.02607,0.20539
3373.09748,0.20533
3371.16889,0.20547
3369.24031,0.20561
3367.31172,0.20581
3365.38314,0.20634
3363.45455,0.20670
3361.52596,0.20675
3359.59738,0.20663
3357.66879,0.20657
3355.74020,0.20671
3353.81162,0.20708
3351.88303,0.20749
3349.95444,0.20735
3348.02586,0.20693
3346.09727,0.20683
3344.16869,0.20717
3342.24010,0.20757
3340.31151,0.20778
3338.38293,0.20779
3336.45434,0.20760
3334.52575,0.20761
3332.59717,0.20780
3330.66858,0.20793
3328.73999,0.20783
3326.81141,0.20764
3324.88282,0.20761
3322.95424,0.20760
3321.02565,0.20758
3319.09706,0.20746
3317.16848,0.20740
3315.23989,0.20730
3313.31130,0.20717
3311.38272,0.20726
3309.45413,0.20716
3307.52555,0.20692
3305.59696,0.20690
3303.66837,0.20710
3301.73979,0.20713
3299.81120,0.20687
3297.88261,0.20679
3295.95403,0.20661
3294.02544,0.20598
3292.09685,0.20551
3290.16827,0.20554
3288.23968,0.20545
3286.31110,0.20499
3284.38251,0.20460
3282.45392,0.20431
3280.52534,0.20382
3278.59675,0.20302
3276.66816,0.20225
3274.73958,0.20164
3272.81099,0.20106
3270.88241,0.20047
3268.95382,0.19980
3267.02523,0.19919
3265.09665,0.19844
3263.16806,0.19746
3261.23947,0.19656
3259.31089,0.19579
3257.38230,0.19497
3255.45371,0.19392
3253.52513,0.19307
3251.59654,0.19236
3249.66796,0.19149
3247.73937,0.19079
3245.81078,0.19017
3243.88220,0.18949
3241.95361,0.18868
3240.02502,0.18785
3238.09644,0.18717
3236.16785,0.18643
3234.23927,0.18566
3232.31068,0.18492
3230.38209,0.18419
3228.45351,0.18350
3226.52492,0.18288
3224.59633,0.18219
3222.66775,0.18135
3220.73916,0.18077
3218.81057,0.18008
3216.88199,0.17928
3214.95340,0.17867
3213.02482,0.17799
3211.09623,0.17735
3209.16764,0.17664
3207.23906,0.17589
3205.31047,0.17522
3203.38188,0.17447
3201.45330,0.17366
3199.52471,0.17301
3197.59612,0.17248
3195.66754,0.17178
3193.73895,0.17102
3191.81037,0.17024
3189.88178,0.16971
3187.95319,0.16922
3186.02461,0.16840
3184.09602,0.16761
3182.16743,0.16671
3180.23885,0.16605
3178.31026,0.16547
3176.38168,0.16455
3174.45309,0.16365
3172.52450,0.16284
3170.59592,0.16221
3168.66733,0.16142
3166.73874,0.16067
3164.81016,0.16004
3162.88157,0.15917
3160.95298,0.15845
3159.02440,0.15777
3157.09581,0.15707
3155.16723,0.15634
3153.23864,0.15566
3151.31005,0.15519
3149.38147,0.15460
3147.45288,0.15386
3145.52429,0.15316
3143.59571,0.15270
3141.66712,0.15208
3139.73854,0.15143
3137.80995,0.15104
3135.88136,0.15054
3133.95278,0.15004
3132.02419,0.14947
3130.09560,0.14902
3128.16702,0.14855
3126.23843,0.14787
3124.30984,0.14751
3122.38126,0.14718
3120.45267,0.14674
3118.52409,0.14632
3116.59550,0.14592
3114.66691,0.14563
3112.73833,0.14525
3110.80974,0.14488
3108.88115,0.14453
3106.95257,0.14415
3105.02398,0.14381
3103.09540,0.14339
3101.16681,0.14313
3099.23822,0.14289
3097.30964,0.14250
3095.38105,0.14223
3093.45246,0.14187
3091.52388,0.14154
3089.59529,0.14142
3087.66670,0.14104
3085.73812,0.14064
3083.80953,0.14055
3081.88095,0.14041
3079.95236,0.14010
3078.02377,0.13958
3076.09519,0.13908
3074.16660,0.13879
3072.23801,0.13851
3070.30943,0.13801
3068.38084,0.13737
3066.45225,0.13690
3064.52367,0.13648
3062.59508,0.13590
3060.66650,0.13536
3058.73791,0.13485
3056.80932,0.13429
3054.88074,0.13372
3052.95215,0.13305
3051.02356,0.13232
3049.09498,0.13169
3047.16639,0.13121
3045.23781,0.13087
3043.30922,0.13051
3041.38063,0.12998
3039.45205,0.12934
3037.52346,0.12877
3035.59487,0.12831
3033.66629,0.12795
3031.73770,0.12772
3029.80911,0.12743
3027.88053,0.12715
3025.95194,0.12692
3024.02336,0.12660
3022.09477,0.12610
3020.16618,0.12564
3018.23760,0.12557
3016.30901,0.12565
3014.38042,0.12573
3012.45184,0.12583
3010.52325,0.12594
3008.59467,0.12634
3006.66608,0.12687
3004.73749,0.12715
3002.80891,0.12749
3000.88032,0.12813
2998.95173,0.12884
2997.02315,0.12968
2995.09456,0.13050
2993.16597,0.13120
2991.23739,0.13242
2989.30880,0.13392
2987.38022,0.13525
2985.45163,0.13674
2983.52304,0.13836
2981.59446,0.14003
2979.66587,0.14176
2977.73728,0.14360
2975.80870,0.14565
2973.88011,0.14766
2971.95153,0.14940
2970.02294,0.15112
2968.09435,0.15298
2966.16577,0.15490
2964.23718,0.15678
2962.30859,0.15881
2960.38001,0.16102
2958.45142,0.16281
2956.52283,0.16434
2954.59425,0.16618
2952.66566,0.16794
2950.73708,0.16950
2948.80849,0.17130
2946.87990,0.17355
2944.95132,0.17641
2943.02273,0.17966
2941.09414,0.18318
2939.16556,0.18698
2937.23697,0.19094
2935.30838,0.19484
2933.37980,0.19857
2931.45121,0.20198
2929.52263,0.20495
2927.59404,0.20760
2925.66545,0.20979
2923.73687,0.21139
2921.80828,0.21273
2919.87969,0.21333
2917.95111,0.21129
2916.02252,0.20487
2914.09394,0.19588
2912.16535,0.18782
2910.23676,0.18147
2908.30818,0.17649
2906.37959,0.17261
2904.45100,0.16926
2902.52242,0.16627
2900.59383,0.16359
2898.66524,0.16121
2896.73666,0.15894
2894.80807,0.15671
2892.87949,0.15455
2890.95090,0.15229
2889.02231,0.15027
2887.09373,0.14849
2885.16514,0.14665
2883.23655,0.14507
2881.30797,0.14394
2879.37938,0.14322
2877.45080,0.14285
2875.52221,0.14265
2873.59362,0.14257
2871.66504,0.14267
2869.73645,0.14281
2867.80786,0.14284
2865.87928,0.14334
2863.95069,0.14490
2862.02210,0.14753
2860.09352,0.15133
2858.16493,0.15617
2856.23635,0.16104
2854.30776,0.16434
2852.37917,0.16517
2850.45059,0.16283
2848.52200,0.15676
2846.59341,0.14808
2844.66483,0.13905
2842.73624,0.13105
2840.80766,0.12443
2838.87907,0.11899
2836.95048,0.11435
2835.02190,0.11056
2833.09331,0.10753
2831.16472,0.10469
2829.23614,0.10213
2827.30755,0.09998
2825.37896,0.09807
2823.45038,0.09649
2821.52179,0.09512
2819.59321,0.09367
2817.66462,0.09228
2815.73603,0.09120
2813.80745,0.09014
2811.87886,0.08894
2809.95027,0.08793
2808.02169,0.08708
2806.09310,0.08614
2804.16451,0.08519
2802.23593,0.08443
2800.30734,0.08372
2798.37876,0.08292
2796.45017,0.08221
2794.52158,0.08154
2792.59300,0.08080
2790.66441,0.08006
2788.73582,0.07939
2786.80724,0.07875
2784.87865,0.07822
2782.95007,0.07788
2781.02148,0.07745
2779.09289,0.07680
2777.16431,0.07619
2775.23572,0.07569
2773.30713,0.07516
2771.37855,0.07465
2769.44996,0.07418
2767.52137,0.07365
2765.59279,0.07335
2763.66420,0.07316
2761.73562,0.07271
2759.80703,0.07227
2757.87844,0.07190
2755.94986,0.07152
2754.02127,0.07121
2752.09268,0.07087
2750.16410,0.07051
2748.23551,0.07024
2746.30693,0.07005
2744.37834,0.06966
2742.44975,0.06915
2740.52117,0.06890
2738.59258,0.06872
2736.66399,0.06838
2734.73541,0.06796
2732.80682,0.06761
2730.87823,0.06739
2728.94965,0.06709
2727.02106,0.06658
2725.09248,0.06612
2723.16389,0.06583
2721.23530,0.06548
2719.30672,0.06511
2717.37813,0.06480
2715.44954,0.06442
2713.52096,0.06393
2711.59237,0.06343
2709.66379,0.06301
2707.73520,0.06267
2705.80661,0.06239
2703.87803,0.06197
2701.94944,0.06161
2700.02085,0.06145
2698.09227,0.06111
2696.16368,0.06070
2694.23509,0.06042
2692.30651,0.06014
2690.37792,0.05976
2688.44934,0.05934
2686.52075,0.05903
2684.59216,0.05888
2682.66358,0.05872
2680.73499,0.05841
2678.80640,0.05810
2676.87782,0.05775
2674.94923,0.05734
2673.02064,0.05708
2671.09206,0.05683
2669.16347,0.05649
2667.23489,0.05607
2665.30630,0.05564
2663.37771,0.05530
2661.44913,0.05501
2659.52054,0.05472
2657.59195,0.05449
2655.66337,0.05429
2653.73478,0.05402
2651.80620,0.05371
2649.87761,0.05338
2647.94902,0.05296
2646.02044,0.05270
2644.09185,0.05256
2642.16326,0.05228
2640.23468,0.05188
2638.30609,0.05146
2636.37750,0.05122
2634.44892,0.05106
2632.52033,0.05073
2630.59175,0.05035
2628.66316,0.05000
2626.73457,0.04957
2624.80599,0.04916
2622.87740,0.04891
2620.94881,0.04868
2619.02023,0.04831
2617.09164,0.04803
2615.16306,0.04785
2613.23447,0.04754
2611.30588,0.04728
2609.37730,0.04706
2607.44871,0.04678
2605.52012,0.04650
2603.59154,0.04614
2601.66295,0.04580
2599.73436,0.04554
2597.80578,0.04521
2595.87719,0.04492
2593.94861,0.04465
2592.02002,0.04432
2590.09143,0.04391
2588.16285,0.04347
2586.23426,0.04318
2584.30567,0.04299
2582.37709,0.04280
2580.44850,0.04251
2578.51991,0.04216
2576.59133,0.04184
2574.66274,0.04148
2572.73416,0.04126
2570.80557,0.04104
2568.87698,0.04056
2566.94840,0.04022
2565.01981,0.04004
2563.09122,0.03986
2561.16264,0.03971
2559.23405,0.03948
2557.30547,0.03923
2555.37688,0.03890
2553.44829,0.03860
2551.51971,0.03839
2549.59112,0.03816
2547.66253,0.03802
2545.73395,0.03785
2543.80536,0.03755
2541.87677,0.03725
2539.94819,0.03701
2538.01960,0.03678
2536.09102,0.03654
2534.16243,0.03637
2532.23384,0.03615
2530.30526,0.03584
2528.37667,0.03551
2526.44808,0.03517
2524.51950,0.03493
2522.59091,0.03481
2520.66233,0.03464
2518.73374,0.03439
2516.80515,0.03410
2514.87657,0.03385
2512.94798,0.03364
2511.01939,0.03341
2509.09081,0.03313
2507.16222,0.03277
2505.23363,0.03243
2503.30505,0.03213
2501.37646,0.03191
2499.44788,0.03171
2497.51929,0.03145
2495.59070,0.03120
2493.66212,0.03085
2491.73353,0.03046
2489.80494,0.03021
2487.87636,0.02997
2485.94777,0.02965
2484.01919,0.02931
2482.09060,0.02908
2480.16201,0.02887
2478.23343,0.02855
2476.30484,0.02825
2474.37625,0.02805
2472.44767,0.02777
2470.51908,0.02742
2468.59049,0.02712
2466.66191,0.02692
2464.73332,0.02675
2462.80474,0.02646
2460.87615,0.02613
2458.94756,0.02585
2457.01898,0.02559
2455.09039,0.02532
2453.16180,0.02498
2451.23322,0.02468
2449.30463,0.02433
2447.37604,0.02393
2445.44746,0.02365
2443.51887,0.02343
2441.59029,0.02321
2439.66170,0.02296
2437.73311,0.02264
2435.80453,0.02227
2433.87594,0.02194
2431.94735,0.02174
2430.01877,0.02143
2428.09018,0.02105
2426.16160,0.02083
2424.23301,0.02059
2422.30442,0.02033
2420.37584,0.02004
2418.44725,0.01975
2416.51866,0.01955
2414.59008,0.01921
2412.66149,0.01883
2410.73290,0.01860
2408.80432,0.01839
2406.87573,0.01813
2404.94715,0.01783
2403.01856,0.01751
2401.08997,0.01729
2399.16139,0.01706
2397.23280,0.01681
2395.30421,0.01663
2393.37563,0.01643
2391.44704,0.01623
2389.51846,0.01601
2387.58987,0.01571
2385.66128,0.01539
2383.73270,0.01510
2381.80411,0.01494
2379.87552,0.01494
2377.94694,0.01495
2376.01835,0.01485
2374.08976,0.01468
2372.16118,0.01464
2370.23259,0.01468
2368.30401,0.01457
2366.37542,0.01445
2364.44683,0.01443
2362.51825,0.01419
2360.58966,0.01384
2358.66107,0.01357
2356.73249,0.01320
2354.80390,0.01276
2352.87532,0.01227
2350.94673,0.01182
2349.01814,0.01173
2347.08956,0.01189
2345.16097,0.01208
2343.23238,0.01221
2341.30380,0.01215
2339.37521,0.01197
2337.44662,0.01176
2335.51804,0.01148
2333.58945,0.01115
2331.66087,0.01089
2329.73228,0.01073
2327.80369,0.01052
2325.87511,0.01022
2323.94652,0.00993
2322.01793,0.00973
2320.08935,0.00957
2318.16076,0.00934
2316.23217,0.00911
2314.30359,0.00886
2312.37500,0.00858
2310.44642,0.00840
2308.51783,0.00821
2306.58924,0.00807
2304.66066,0.00794
2302.73207,0.00784
2300.80348,0.00774
2298.87490,0.00751
2296.94631,0.00733
2295.01773,0.00726
2293.08914,0.00717
2291.16055,0.00706
2289.23197,0.00695
2287.30338,0.00677
2285.37479,0.00651
2283.44621,0.00633
2281.51762,0.00619
2279.58903,0.00608
2277.66045,0.00596
2275.73186,0.00579
2273.80328,0.00568
2271.87469,0.00558
2269.94610,0.00555
2268.01752,0.00555
2266.08893,0.00542
2264.16034,0.00524
2262.23176,0.00508
2260.30317,0.00494
2258.37459,0.00478
2256.44600,0.00476
2254.51741,0.00478
2252.58883,0.00466
2250.66024,0.00451
2248.73165,0.00431
2246.80307,0.00419
2244.87448,0.00416
2242.94589,0.00409
2241.01731,0.00407
2239.08872,0.00404
2237.16014,0.00385
2235.23155,0.00366
2233.30296,0.00365
2231.37438,0.00362
2229.44579,0.00343
2227.51720,0.00327
2225.58862,0.00319
2223.66003,0.00310
2221.73145,0.00299
2219.80286,0.00285
2217.87427,0.00276
2215.94569,0.00267
2214.01710,0.00249
2212.08851,0.00237
2210.15993,0.00235
2208.23134,0.00231
2206.30275,0.00218
2204.37417,0.00208
2202.44558,0.00201
2200.51700,0.00198
2198.58841,0.00203
2196.65982,0.00193
2194.73124,0.00175
2192.80265,0.00171
2190.87406,0.00175
2188.94548,0.00176
2187.01689,0.00168
2185.08830,0.00156
2183.15972,0.00156
2181.23113,0.00155
2179.30255,0.00152
2177.37396,0.00147
2175.44537,0.00139
2173.51679,0.00131
2171.58820,0.00113
2169.65961,0.00107
2167.73103,0.00123
2165.80244,0.00134
2163.87386,0.00138
2161.94527,0.00139
2160.01668,0.00135
2158.08810,0.00122
2156.15951,0.00119
2154.23092,0.00132
2152.30234,0.00134
2150.37375,0.00131
2148.44516,0.00131
2146.51658,0.00127
2144.58799,0.00118
2142.65941,0.00114
2140.73082,0.00124
2138.80223,0.00130
2136.87365,0.00128
2134.94506,0.00117
2133.01647,0.00102
2131.08789,0.00103
2129.15930,0.00108
2127.23072,0.00107
2125.30213,0.00099
2123.37354,0.00090
2121.44496,0.00084
2119.51637,0.00077
2117.58778,0.00075
2115.65920,0.00075
2113.73061,0.00066
2111.80202,0.00055
2109.87344,0.00052
2107.94485,0.00053
2106.01627,0.00057
2104.08768,0.00057
2102.15909,0.00045
2100.23051,0.00039
2098.30192,0.00047
2096.37333,0.00057
2094.44475,0.00056
2092.51616,0.00047
2090.58758,0.00042
2088.65899,0.00038
2086.73040,0.00037
2084.80182,0.00037
2082.87323,0.00030
2080.94464,0.00023
2079.01606,0.00028
2077.08747,0.00043
2075.15888,0.00041
2073.23030,0.00033
2071.30171,0.00024
2069.37313,0.00017
2067.44454,0.00028
2065.51595,0.00028
2063.58737,0.00023
2061.65878,0.00031
2059.73019,0.00029
2057.80161,0.00022
2055.87302,0.00021
2053.94443,0.00026
2052.01585,0.00030
2050.08726,0.00043
2048.15868,0.00061
2046.23009,0.00066
2044.30150,0.00075
2042.37292,0.00090
2040.44433,0.00101
2038.51574,0.00106
2036.58716,0.00110
2034.65857,0.00127
2032.72999,0.00147
2030.80140,0.00154
2028.87281,0.00152
2026.94423,0.00152
2025.01564,0.00159
2023.08705,0.00163
2021.15847,0.00165
2019.22988,0.00175
2017.30129,0.00177
2015.37271,0.00168
2013.44412,0.00184
2011.51554,0.00203
2009.58695,0.00207
2007.65836,0.00220
2005.72978,0.00231
2003.80119,0.00237
2001.87260,0.00243
1999.94402,0.00251
1998.01543,0.00248
1996.08685,0.00236
1994.15826,0.00252
1992.22967,0.00245
1990.30109,0.00214
1988.37250,0.00204
1986.44391,0.00191
1984.51533,0.00191
1982.58674,0.00201
1980.65815,0.00204
1978.72957,0.00199
1976.80098,0.00177
1974.87240,0.00164
1972.94381,0.00158
1971.01522,0.00153
1969.08664,0.00160
1967.15805,0.00138
1965.22946,0.00102
1963.30088,0.00100
1961.37229,0.00099
1959.44371,0.00083
1957.51512,0.00075
1955.58653,0.00070
1953.65795,0.00071
1951.72936,0.00065
1949.80077,0.00061
1947.87219,0.00060
1945.94360,0.00058
1944.01501,0.00061
1942.08643,0.00026
1940.15784,0.00000
1938.22926,0.00012
1936.30067,0.00015
1934.37208,0.00015
1932.44350,0.00003
1930.51491,-0.00004
1928.58632,-0.00002
1926.65774,-0.00000
1924.72915,0.00022
1922.80056,0.00000
1920.87198,0.00009
1918.94339,0.00056
1917.01481,0.00018
1915.08622,0.00037
1913.15763,0.00119
1911.22905,0.00162
1909.30046,0.00198
1907.37187,0.00227
1905.44329,0.00277
1903.51470,0.00327
1901.58612,0.00374
1899.65753,0.00428
1897.72894,0.00462
1895.80036,0.00496
1893.87177,0.00522
1891.94318,0.00598
1890.01460,0.00647
1888.08601,0.00630
1886.15742,0.00671
1884.22884,0.00700
1882.30025,0.00718
1880.37167,0.00738
1878.44308,0.00739
1876.51449,0.00759
1874.58591,0.00764
1872.65732,0.00798
1870.72873,0.00832
1868.80015,0.00768
1866.87156,0.00676
1864.94298,0.00670
1863.01439,0.00664
1861.08580,0.00607
1859.15722,0.00567
1857.22863,0.00503
1855.30004,0.00442
1853.37146,0.00367
1851.44287,0.00308
1849.51428,0.00261
1847.58570,0.00228
1845.65711,0.00248
1843.72853,0.00089
1841.79994,0.00000
1839.87135,0.00076
1837.94277,0.00081
1836.01418,0.00064
1834.08559,0.00052
1832.15701,0.00108
1830.22842,0.00077
1828.29984,0.00014
1826.37125,0.00102
1824.44266,0.00105
1822.51408,0.00125
1820.58549,0.00205
1818.65690,0.00254
1816.72832,0.00310
1814.79973,0.00371
1812.87114,0.00474
1810.94256,0.00554
1809.01397,0.00637
1807.08539,0.00753
1805.15680,0.00893
1803.22821,0.01066
1801.29963,0.01191
1799.37104,0.01287
1797.44245,0.01438
1795.51387,0.01679
1793.58528,0.01909
1791.65669,0.01986
1789.72811,0.02127
1787.79952,0.02438
1785.87094,0.02681
1783.94235,0.02868
1782.01376,0.03108
1780.08518,0.03318
1778.15659,0.03527
1776.22800,0.03772
1774.29942,0.04036
1772.37083,0.04144
1770.44225,0.04215
1768.51366,0.04466
1766.58507,0.04633
1764.65649,0.04890
1762.72790,0.05156
1760.79931,0.05239
1758.87073,0.05505
1756.94214,0.05748
1755.01355,0.05975
1753.08497,0.06360
1751.15638,0.06635
1749.22780,0.06840
1747.29921,0.07147
1745.37062,0.07525
1743.44204,0.07920
1741.51345,0.08327
1739.58486,0.08642
1737.65628,0.08990
1735.72769,0.09484
1733.79911,0.09586
1731.87052,0.09650
1729.94193,0.10048
1728.01335,0.10305
1726.08476,0.10600
1724.15617,0.10880
1722.22759,0.11147
1720.29900,0.11579
1718.37041,0.11839
1716.44183,0.11915
1714.51324,0.12105
1712.58466,0.12429
1710.65607,0.12740
1708.72748,0.13015
1706.79890,0.13278
1704.87031,0.13418
1702.94172,0.13787
1701.01314,0.14113
1699.08455,0.14086
1697.15596,0.14442
1695.22738,0.14624
1693.29879,0.14769
1691.37021,0.15233
1689.44162,0.15450
1687.51303,0.15772
1685.58445,0.16130
1683.65586,0.16039
1681.72727,0.16238
1679.79869,0.16592
1677.87010,0.16953
1675.94152,0.17199
1674.01293,0.17257
1672.08434,0.17539
1670.15576,0.17766
1668.22717,0.17778
1666.29858,0.17967
1664.37000,0.18246
1662.44141,0.18293
1660.51282,0.18325
1658.58424,0.18462
1656.65565,0.18652
1654.72707,0.18917
1652.79848,0.18483
1650.86989,0.18194
1648.94131,0.18566
1647.01272,0.18585
1645.08413,0.18353
1643.15555,0.18420
1641.22696,0.18540
1639.29838,0.18624
1637.36979,0.18740
1635.44120,0.18578
1633.51262,0.18399
1631.58403,0.18557
1629.65544,0.18581
1627.72686,0.18451
1625.79827,0.18342
1623.86968,0.18177
1621.94110,0.17896
1620.01251,0.17828
1618.08393,0.17854
1616.15534,0.17458
1614.22675,0.17259
1612.29817,0.17290
1610.36958,0.17215
1608.44099,0.17119
1606.51241,0.16994
1604.58382,0.16893
1602.65524,0.16742
1600.72665,0.16584
1598.79806,0.16446
1596.86948,0.16317
1594.94089,0.16184
1593.01230,0.16031
1591.08372,0.15900
1589.15513,0.15719
1587.22654,0.15560
1585.29796,0.15384
1583.36937,0.15206
1581.44079,0.15024
1579.51220,0.14909
1577.58361,0.14846
1575.65503,0.14455
1573.72644,0.14238
1571.79785,0.14334
1569.86927,0.14204
1567.94068,0.14011
1566.01209,0.14023
1564.08351,0.14011
1562.15492,0.14163
1560.22634,0.14310
1558.29775,0.13777
1556.36916,0.13698
1554.44058,0.13869
1552.51199,0.13861
1550.58340,0.13943
1548.65482,0.13918
1546.72623,0.13963
1544.79765,0.13976
1542.86906,0.13934
1540.94047,0.13922
1539.01189,0.13476
1537.08330,0.13448
1535.15471,0.13645
1533.22613,0.13510
1531.29754,0.13337
1529.36895,0.13349
1527.44037,0.13319
1525.51178,0.13176
1523.58320,0.13224
1521.65461,0.13169
1519.72602,0.13044
1517.79744,0.13159
1515.86885,0.13146
1513.94026,0.13102
1512.01168,0.13023
1510.08309,0.12891
1508.15451,0.12763
1506.22592,0.12108
1504.29733,0.11593
1502.36875,0.11511
1500.44016,0.11301
1498.51157,0.10982
1496.58299,0.10534
1494.65440,0.10113
1492.72581,0.09981
1490.79723,0.09789
1488.86864,0.09474
1486.94006,0.09291
1485.01147,0.09210
1483.08288,0.09214
1481.15430,0.09243
1479.22571,0.09356
1477.29712,0.09566
1475.36854,0.09802
1473.43995,0.10095
1471.51137,0.10410
1469.58278,0.10894
1467.65419,0.11453
1465.72561,0.11725
1463.79702,0.11772
1461.86843,0.11891
1459.93985,0.12128
1458.01126,0.12223
1456.08267,0.12000
1454.15409,0.12043
1452.22550,0.12187
1450.29692,0.12210
1448.36833,0.12179
1446.43974,0.12065
1444.51116,0.12035
1442.58257,0.12009
1440.65398,0.11988
1438.72540,0.12090
1436.79681,0.11997
1434.86822,0.11851
1432.93964,0.11951
1431.01105,0.12018
1429.08247,0.11986
1427.15388,0.12026
1425.22529,0.12079
1423.29671,0.12093
1421.36812,0.12178
1419.43953,0.12131
1417.51095,0.11956
1415.58236,0.11972
1413.65378,0.11964
1411.72519,0.11905
1409.79660,0.11831
1407.86802,0.11744
1405.93943,0.11687
1404.01084,0.11544
1402.08226,0.11461
1400.15367,0.11388
1398.22508,0.11261
1396.29650,0.11198
1394.36791,0.11067
1392.43933,0.10952
1390.51074,0.10952
1388.58215,0.10890
1386.65357,0.10648
1384.72498,0.10488
1382.79639,0.10590
1380.86781,0.10778
1378.93922,0.10902
1377.01064,0.10952
1375.08205,0.10933
1373.15346,0.10828
1371.22488,0.10734
1369.29629,0.10656
1367.36770,0.10515
1365.43912,0.10412
1363.51053,0.10276
1361.58194,0.10089
1359.65336,0.09983
1357.72477,0.09916
1355.79619,0.09849
1353.86760,0.09776
1351.93901,0.09719
1350.01043,0.09673
1348.08184,0.09627
1346.15325,0.09584
1344.22467,0.09545
1342.29608,0.09538
1340.36750,0.09521
1338.43891,0.09458
1336.51032,0.09416
1334.58174,0.09401
1332.65315,0.09389
1330.72456,0.09375
1328.79598,0.09348
1326.86739,0.09330
1324.93880,0.09335
1323.01022,0.09336
1321.08163,0.09319
1319.15305,0.09280
1317.22446,0.09260
1315.29587,0.09266
1313.36729,0.09240
1311.43870,0.09206
1309.51011,0.09200
1307.58153,0.09203
1305.65294,0.09205
1303.72435,0.09214
1301.79577,0.09245
1299.86718,0.09272
1297.93860,0.09291
1296.01001,0.09328
1294.08142,0.09397
1292.15284,0.09500
1290.22425,0.09607
1288.29566,0.09721
1286.36708,0.09866
1284.43849,0.10013
1282.50991,0.10147
1280.58132,0.10289
1278.65273,0.10445
1276.72415,0.10602
1274.79556,0.10769
1272.86697,0.10954
1270.93839,0.11135
1269.00980,0.11323
1267.08121,0.11522
1265.15263,0.11734
1263.22404,0.11989
1261.29546,0.12286
1259.36687,0.12618
1257.43828,0.12962
1255.50970,0.13317
1253.58111,0.13706
1251.65252,0.14128
1249.72394,0.14586
1247.79535,0.15027
1245.86677,0.15438
1243.93818,0.15838
1242.00959,0.16217
1240.08101,0.16589
1238.15242,0.16922
1236.22383,0.17210
1234.29525,0.17474
1232.36666,0.17703
1230.43807,0.17923
1228.50949,0.18136
1226.58090,0.18329
1224.65232,0.18497
1222.72373,0.18647
1220.79514,0.18806
1218.86656,0.18983
1216.93797,0.19169
1215.00938,0.19333
1213.08080,0.19486
1211.15221,0.19644
1209.22363,0.19799
1207.29504,0.19950
1205.36645,0.20088
1203.43787,0.20210
1201.50928,0.20310
1199.58069,0.20399
1197.65211,0.20485
1195.72352,0.20598
1193.79493,0.20742
1191.86635,0.20867
1189.93776,0.20970
1188.00918,0.21061
1186.08059,0.21166
1184.15200,0.21307
1182.22342,0.21467
1180.29483,0.21657
1178.36624,0.21845
1176.43766,0.22057
1174.50907,0.22321
1172.58048,0.22575
1170.65190,0.22818
1168.72331,0.23068
1166.79473,0.23329
1164.86614,0.23581
1162.93755,0.23787
1161.00897,0.23947
1159.08038,0.24067
1157.15179,0.24170
1155.22321,0.24273
1153.29462,0.24395
1151.36604,0.24493
1149.43745,0.24590
1147.50886,0.24761
1145.58028,0.24952
1143.65169,0.25173
1141.72310,0.25422
1139.79452,0.25669
1137.86593,0.25922
1135.93734,0.26183
1134.00876,0.26515
1132.08017,0.26846
1130.15159,0.27135
1128.22300,0.27518
1126.29441,0.27995
1124.36583,0.28459
1122.43724,0.28880
1120.50865,0.29297
1118.58007,0.29771
1116.65148,0.30340
1114.72290,0.30930
1112.79431,0.31494
1110.86572,0.32070
1108.93714,0.32623
1107.00855,0.33134
1105.07996,0.33600
1103.15138,0.34008
1101.22279,0.34314
1099.29420,0.34500
1097.36562,0.34648
1095.43703,0.34787
1093.50845,0.34851
1091.57986,0.34802
1089.65127,0.34703
1087.72269,0.34635
1085.79410,0.34595
1083.86551,0.34480
1081.93693,0.34272
1080.00834,0.34069
1078.07976,0.33879
1076.15117,0.33659
1074.22258,0.33433
1072.29400,0.33288
1070.36541,0.33157
1068.43682,0.32985
1066.50824,0.32851
1064.57965,0.32727
1062.65106,0.32568
1060.72248,0.32353
1058.79389,0.32109
1056.86531,0.31851
1054.93672,0.31591
1053.00813,0.31358
1051.07955,0.31119
1049.15096,0.30960
1047.22237,0.30860
1045.29379,0.30759
1043.36520,0.30751
1041.43661,0.30804
1039.50803,0.30818
1037.57944,0.30741
1035.65086,0.30650
1033.72227,0.30567
1031.79368,0.30403
1029.86510,0.30184
1027.93651,0.29890
1026.00792,0.29539
1024.07934,0.29213
1022.15075,0.28858
1020.22217,0.28448
1018.29358,0.28063
1016.36499,0.27715
1014.43641,0.27348
1012.50782,0.26991
1010.57923,0.26691
1008.65065,0.26372
1006.72206,0.25987
1004.79347,0.25558
1002.86489,0.25088
1000.93630,0.24629
999.00772,0.24172
997.07913,0.23685
995.15054,0.23214
993.22196,0.22730
991.29337,0.22210
989.36478,0.21669
987.43620,0.21105
985.50761,0.20517
983.57903,0.19872
981.65044,0.19189
979.72185,0.18493
977.79327,0.17776
975.86468,0.17037
973.93609,0.16267
972.00751,0.15508
970.07892,0.14777
968.15033,0.14078
966.22175,0.13432
964.29316,0.12816
962.36458,0.12249
960.43599,0.11752
958.50740,0.11282
956.57882,0.10866
954.65023,0.10516
952.72164,0.10197
950.79306,0.09943
948.86447,0.09745
946.93589,0.09535
945.00730,0.09326
943.07871,0.09174
941.15013,0.09067
939.22154,0.08943
937.29295,0.08836
935.36437,0.08756
933.43578,0.08610
931.50719,0.08456
929.57861,0.08377
927.65002,0.08300
925.72144,0.08194
923.79285,0.08091
921.86426,0.08043
919.93568,0.08031
918.00709,0.07973
916.07850,0.07892
914.14992,0.07787
912.22133,0.07620
910.29274,0.07412
908.36416,0.07111
906.43557,0.06720
904.50699,0.06310
902.57840,0.05878
900.64981,0.05419
898.72123,0.04979
896.79264,0.04574
894.86405,0.04197
892.93547,0.03879
891.00688,0.03575
889.07830,0.03289
887.14971,0.03053
885.22112,0.02800
883.29254,0.02549
881.36395,0.02294
879.43536,0.02024
877.50678,0.01811
875.57819,0.01606
873.64960,0.01362
871.72102,0.01141
869.79243,0.00964
867.86385,0.00784
865.93526,0.00575
864.00667,0.00394
862.07809,0.00257
860.14950,0.00127
858.22091,0.00035
856.29233,0.00000
854.36374,-0.00016
852.43516,-0.00005
850.50657,0.00040
848.57798,0.00119
846.64940,0.00240
844.72081,0.00380
842.79222,0.00543
840.86364,0.00752
838.93505,0.00999
837.00646,0.01272
835.07788,0.01574
833.14929,0.01846
831.22071,0.02054
829.29212,0.02224
827.36353,0.02367
825.43495,0.02483
823.50636,0.02553
821.57777,0.02660
819.64919,0.02827
817.72060,0.02940
815.79201,0.03043
813.86343,0.03225
811.93484,0.03526
810.00626,0.03927
808.07767,0.04401
806.14908,0.04991
804.22050,0.05622
802.29191,0.06095
800.36332,0.06301
798.43474,0.06267
796.50615,0.05982
794.57757,0.05541
792.64898,0.05140
790.72039,0.04829
788.79181,0.04595
786.86322,0.04447
784.93463,0.04421
783.00605,0.04471
781.07746,0.04529
779.14887,0.04487
777.22029,0.04160
775.29170,0.03622
773.36312,0.03090
771.43453,0.02650
769.50594,0.02330
767.57736,0.02126
765.64877,0.01970
763.72018,0.01836
761.79160,0.01761
759.86301,0.01723
757.93443,0.01730
756.00584,0.01759
754.07725,0.01731
752.14867,0.01678
750.22008,0.01623
748.29149,0.01545
746.36291,0.01415
744.43432,0.01277
742.50573,0.01129
740.57715,0.00912
738.64856,0.00716
736.71998,0.00583
734.79139,0.00466
732.86280,0.00389
730.93422,0.00364
729.00563,0.00353
727.07704,0.00346
725.14846,0.00357
723.21987,0.00371
721.29129,0.00358
719.36270,0.00275
717.43411,0.00151
715.50553,0.00043
713.57694,0.00000
711.64835,0.00061
709.71977,0.00144
707.79118,0.00212
705.86259,0.00360
703.93401,0.00590
702.00542,0.00849
700.07684,0.01164
698.14825,0.01531
696.21966,0.01790
694.29108,0.01776
692.36249,0.01537
690.43390,0.01215
688.50532,0.00909
686.57673,0.00714
684.64814,0.00605
682.71956,0.00510
680.79097,0.00464
678.86239,0.00446
676.93380,0.00391
675.00521,0.00322
673.07663,0.00266
671.14804,0.00236
669.21945,0.00226
667.29087,0.00127
665.36228,0.00000
663.43370,-0.00026
661.50511,0.00017
659.57652,0.00054
657.64794,0.00046
655.71935,0.00101
653.79076,0.00190
651.86218,0.00208
649.93359,0.00222
648.00500,0.00242
646.07642,0.00299
644.14783,0.00336
642.21925,0.00333
640.29066,0.00353
638.36207,0.00388
636.43349,0.00420
634.50490,0.00373
632.57631,0.00400
630.64773,0.00547
628.71914,0.00645
626.79056,0.00692
624.86197,0.00687
622.93338,0.00716
621.00480,0.00775
619.07621,0.00815
617.14762,0.00897
615.21904,0.01039
613.29045,0.01193
611.36186,0.01227
609.43328,0.01223
607.50469,0.01339
605.57611,0.01483
603.64752,0.01539
601.71893,0.01559
599.79035,0.01652
597.86176,0.01816
595.93317,0.02011
594.00459,0.02246
592.07600,0.02509
590.14742,0.02745
588.21883,0.02977
586.29024,0.03187
584.36166,0.03464
582.43307,0.03908
580.50448,0.04227
578.57590,0.04417
576.64731,0.04741
574.71872,0.05126
572.79014,0.05446
570.86155,0.05740
568.93297,0.06162
567.00438,0.06619
565.07579,0.06936
563.14721,0.07281
561.21862,0.07718
559.29003,0.08083
557.36145,0.08383
555.43286,0.08654
553.50427,0.08989
551.57569,0.09392
549.64710,0.09712
547.71852,0.10163
545.78993,0.10602
543.86134,0.10868
541.93276,0.11299
540.00417,0.11791
538.07558,0.12209
536.14700,0.12522
534.21841,0.12845
532.28983,0.13283
530.36124,0.13458
528.43265,0.13291
526.50407,0.13118
524.57548,0.13125
522.64689,0.13100
520.71831,0.12987
518.78972,0.12727
516.86113,0.12281
514.93255,0.11932
513.00396,0.11551
511.07538,0.11289
509.14679,0.11086
507.21820,0.10741
505.28962,0.10627
503.36103,0.10679
501.43244,0.10948
499.50386,0.11420
497.57527,0.11962
495.64669,0.12430
493.71810,0.12955
491.78951,0.13955
489.86093,0.14999
487.93234,0.15954
486.00375,0.16804
484.07517,0.17822
482.14658,0.19058
480.21799,0.19896
478.28941,0.20871
476.36082,0.21675
474.43224,0.21928
472.50365,0.21866
470.57506,0.21463
468.64648,0.21111
466.71789,0.20574
464.78930,0.19904
462.86072,0.18787
460.93213,0.17534
459.00355,0.16696
457.07496,0.15438
455.14637,0.14180
453.21779,0.13369
451.28920,0.12727
449.36061,0.11995
447.43203,0.11075
445.50344,0.10166
443.57485,0.09530
441.64627,0.09166
439.71768,0.08694
437.78910,0.08205
435.86051,0.07805
433.93192,0.07626
432.00334,0.07402
430.07475,0.06887
428.14616,0.06467
426.21758,0.06145
424.28899,0.05811
422.36040,0.05314
420.43182,0.04957
418.50323,0.04550
416.57465,0.03857
414.64606,0.03363
412.71747,0.02834
410.78889,0.02545
408.86030,0.02023
406.93171,0.00731
405.00313,0.00000
403.07454,0.00199
401.14596,0.00423
399.21737,0.00000
