3747.24323,0.00028
3745.31464,0.00207
3743.38605,0.00020
3741.45747,0.00000
3739.52888,0.00229
3737.60030,0.00337
3735.67171,0.00333
3733.74312,0.00334
3731.81454,0.00384
3729.88595,0.00424
3727.95736,0.00545
3726.02878,0.00651
3724.10019,0.00718
3722.17161,0.00858
3720.24302,0.00975
3718.31443,0.01163
3716.38585,0.01383
3714.45726,0.01675
3712.52867,0.01969
3710.60009,0.02125
3708.67150,0.02411
3706.74291,0.02747
3704.81433,0.03124
3702.88574,0.03482
3700.95716,0.03695
3699.02857,0.03904
3697.09998,0.04037
3695.17140,0.04132
3693.24281,0.04183
3691.31422,0.04266
3689.38564,0.04352
3687.45705,0.04350
3685.52846,0.04539
3683.59988,0.04860
3681.67129,0.05197
3679.74271,0.05540
3677.81412,0.05977
3675.88553,0.06360
3673.95695,0.06642
3672.02836,0.07190
3670.09977,0.07670
3668.17119,0.08012
3666.24260,0.08523
3664.31402,0.09042
3662.38543,0.09534
3660.45684,0.09980
3658.52826,0.10445
3656.59967,0.10854
3654.67108,0.11147
3652.74250,0.11594
3650.81391,0.12019
3648.88532,0.12255
3646.95674,0.12486
3645.02815,0.12824
3643.09957,0.13193
3641.17098,0.13509
3639.24239,0.13800
3637.31381,0.14103
3635.38522,0.14447
3633.45663,0.14776
3631.52805,0.15140
3629.59946,0.15437
3627.67088,0.15476
3625.74229,0.15596
3623.81370,0.15778
3621.88512,0.15877
3619.95653,0.15860
3618.02794,0.15641
3616.09936,0.15471
3614.17077,0.15343
3612.24218,0.15172
3610.31360,0.15036
3608.38501,0.14867
3606.45643,0.14690
3604.52784,0.14575
3602.59925,0.14492
3600.67067,0.14390
3598.74208,0.14280
3596.81349,0.14193
3594.88491,0.14108
3592.95632,0.14020
3591.02774,0.14007
3589.09915,0.14017
3587.17056,0.13947
3585.24198,0.13886
3583.31339,0.13888
3581.38480,0.13923
3579.45622,0.13963
3577.52763,0.13997
3575.59904,0.14051
3573.67046,0.14116
3571.74187,0.14190
3569.81329,0.14286
3567.88470,0.14346
3565.95611,0.14354
3564.02753,0.14422
3562.09894,0.14528
3560.17035,0.14610
3558.24177,0.14712
3556.31318,0.14812
3554.38459,0.14904
3552.45601,0.14991
3550.52742,0.15081
3548.59884,0.15189
3546.67025,0.15269
3544.74166,0.15350
3542.81308,0.15458
3540.88449,0.15564
3538.95590,0.15660
3537.02732,0.15747
3535.09873,0.15841
3533.17015,0.15939
3531.24156,0.16040
3529.31297,0.16131
3527.38439,0.16221
3525.45580,0.16328
3523.52721,0.16422
3521.59863,0.16508
3519.67004,0.16607
3517.74145,0.16697
3515.81287,0.16776
3513.88428,0.16868
3511.95570,0.16986
3510.02711,0.17120
3508.09852,0.17222
3506.16994,0.17309
3504.24135,0.17410
3502.31276,0.17483
3500.38418,0.17570
3498.45559,0.17688
3496.52701,0.17788
3494.59842,0.17880
3492.66983,0.17975
3490.74125,0.18070
3488.81266,0.18154
3486.88407,0.18232
3484.95549,0.18326
3483.02690,0.18435
3481.09831,0.18520
3479.16973,0.18581
3477.24114,0.18659
3475.31256,0.18741
3473.38397,0.18828
3471.45538,0.18910
3469.52680,0.18988
3467.59821,0.19070
3465.66962,0.19137
3463.74104,0.19233
3461.81245,0.19337
3459.88386,0.19403
3457.95528,0.19461
3456.02669,0.19530
3454.09811,0.19610
3452.16952,0.19684
3450.24093,0.19759
3448.31235,0.19830
3446.38376,0.19877
3444.45517,0.19929
3442.52659,0.19992
3440.59800,0.20061
3438.66942,0.20138
3436.74083,0.20211
3434.81224,0.20281
3432.88366,0.20351
3430.95507,0.20397
3429.02648,0.20443
3427.09790,0.20508
3425.16931,0.20566
3423.24072,0.20612
3421.31214,0.20649
3419.38355,0.20694
3417.45497,0.20748
3415.52638,0.20793
3413.59779,0.20833
3411.66921,0.20874
3409.74062,0.20917
3407.81203,0.20944
3405.88345,0.20973
3403.95486,0.21014
3402.02628,0.21048
3400.09769,0.21070
3398.16910,0.21092
3396.24052,0.21125
3394.31193,0.21147
3392.38334,0.21176
3390.45476,0.21203
3388.52617,0.21231
3386.59758,0.21255
3384.66900,0.21254
3382.74041,0.21277
3380.81183,0.21307
3378.88324,0.21308
3376.95465,0.21323
3375.02607,0.21364
3373.09748,0.21404
3371.16889,0.21418
3369.24031,0.21421
3367.31172,0.21421
3365.38314,0.21446
3363.45455,0.21484
3361.52596,0.21495
3359.59738,0.21508
3357.66879,0.21527
3355.74020,0.21534
3353.81162,0.21536
3351.88303,0.21549
3349.95444,0.21574
3348.02586,0.21594
3346.09727,0.21616
3344.16869,0.21621
3342.24010,0.21620
3340.31151,0.21623
3338.38293,0.21611
3336.45434,0.21605
3334.52575,0.21613
3332.59717,0.21618
3330.66858,0.21608
3328.73999,0.21607
3326.81141,0.21609
3324.88282,0.21597
3322.95424,0.21595
3321.02565,0.21591
3319.09706,0.21576
3317.16848,0.21565
3315.23989,0.21553
3313.31130,0.21544
3311.38272,0.21534
3309.45413,0.21524
3307.52555,0.21505
3305.59696,0.21482
3303.66837,0.21474
3301.73979,0.21466
3299.81120,0.21451
3297.88261,0.21430
3295.95403,0.21406
3294.02544,0.21379
3292.09685,0.21342
3290.16827,0.21306
3288.23968,0.21285
3286.31110,0.21256
3284.38251,0.21200
3282.45392,0.21145
3280.52534,0.21094
3278.59675,0.21043
3276.66816,0.20985
3274.73958,0.20917
3272.81099,0.20856
3270.88241,0.20782
3268.95382,0.20700
3267.02523,0.20619
3265.09665,0.20536
3263.16806,0.20460
3261.23947,0.20377
3259.31089,0.20290
3257.38230,0.20194
3255.45371,0.20091
3253.52513,0.20001
3251.59654,0.19909
3249.66796,0.19819
3247.73937,0.19735
3245.81078,0.19648
3243.88220,0.19566
3241.95361,0.19487
3240.02502,0.19403
3238.09644,0.19326
3236.16785,0.19260
3234.23927,0.19181
3232.31068,0.19090
3230.38209,0.19001
3228.45351,0.18919
3226.52492,0.18854
3224.59633,0.18788
3222.66775,0.18706
3220.73916,0.18632
3218.81057,0.18566
3216.88199,0.18502
3214.95340,0.18427
3213.02482,0.18334
3211.09623,0.18261
3209.16764,0.18189
3207.23906,0.18109
3205.31047,0.18038
3203.38188,0.17952
3201.45330,0.17877
3199.52471,0.17810
3197.59612,0.17728
3195.66754,0.17649
3193.73895,0.17564
3191.81037,0.17469
3189.88178,0.17369
3187.95319,0.17279
3186.02461,0.17191
3184.09602,0.17096
3182.16743,0.17011
3180.23885,0.16936
3178.31026,0.16860
3176.38168,0.16769
3174.45309,0.16676
3172.52450,0.16591
3170.59592,0.16513
3168.66733,0.16433
3166.73874,0.16337
3164.81016,0.16251
3162.88157,0.16166
3160.95298,0.16080
3159.02440,0.16004
3157.09581,0.15917
3155.16723,0.15831
3153.23864,0.15747
3151.31005,0.15652
3149.38147,0.15565
3147.45288,0.15495
3145.52429,0.15434
3143.59571,0.15364
3141.66712,0.15290
3139.73854,0.15224
3137.80995,0.15168
3135.88136,0.15115
3133.95278,0.15050
3132.02419,0.14978
3130.09560,0.14912
3128.16702,0.14848
3126.23843,0.14788
3124.30984,0.14733
3122.38126,0.14683
3120.45267,0.14634
3118.52409,0.14583
3116.59550,0.14536
3114.66691,0.14497
3112.73833,0.14452
3110.80974,0.14392
3108.88115,0.14345
3106.95257,0.14302
3105.02398,0.14251
3103.09540,0.14204
3101.16681,0.14151
3099.23822,0.14100
3097.30964,0.14061
3095.38105,0.14019
3093.45246,0.13968
3091.52388,0.13920
3089.59529,0.13879
3087.66670,0.13834
3085.73812,0.13782
3083.80953,0.13727
3081.88095,0.13683
3079.95236,0.13643
3078.02377,0.13597
3076.09519,0.13540
3074.16660,0.13478
3072.23801,0.13432
3070.30943,0.13381
3068.38084,0.13316
3066.45225,0.13252
3064.52367,0.13182
3062.59508,0.13126
3060.66650,0.13073
3058.73791,0.13003
3056.80932,0.12938
3054.88074,0.12877
3052.95215,0.12810
3051.02356,0.12739
3049.09498,0.12661
3047.16639,0.12595
3045.23781,0.12541
3043.30922,0.12472
3041.38063,0.12403
3039.45205,0.12355
3037.52346,0.12305
3035.59487,0.12247
3033.66629,0.12197
3031.73770,0.12160
3029.80911,0.12122
3027.88053,0.12080
3025.95194,0.12033
3024.02336,0.11997
3022.09477,0.11970
3020.16618,0.11928
3018.23760,0.11893
3016.30901,0.11882
3014.38042,0.11875
3012.45184,0.11876
3010.52325,0.11884
3008.59467,0.11889
3006.66608,0.11904
3004.73749,0.11936
3002.80891,0.11968
3000.88032,0.12004
2998.95173,0.12048
2997.02315,0.12101
2995.09456,0.12175
2993.16597,0.12257
2991.23739,0.12345
2989.30880,0.12448
2987.38022,0.12569
2985.45163,0.12712
2983.52304,0.12865
2981.59446,0.13027
2979.66587,0.13204
2977.73728,0.13392
2975.80870,0.13585
2973.88011,0.13789
2971.95153,0.14007
2970.02294,0.14230
2968.09435,0.14456
2966.16577,0.14697
2964.23718,0.14937
2962.30859,0.15168
2960.38001,0.15392
2958.45142,0.15600
2956.52283,0.15802
2954.59425,0.16001
2952.66566,0.16187
2950.73708,0.16373
2948.80849,0.16598
2946.87990,0.16882
2944.95132,0.17220
2943.02273,0.17618
2941.09414,0.18065
2939.16556,0.18535
2937.23697,0.19039
2935.30838,0.19562
2933.37980,0.20063
2931.45121,0.20534
2929.52263,0.20977
2927.59404,0.21366
2925.66545,0.21653
2923.73687,0.21811
2921.80828,0.21825
2919.87969,0.21650
2917.95111,0.21231
2916.02252,0.20511
2914.09394,0.19582
2912.16535,0.18682
2910.23676,0.17936
2908.30818,0.17340
2906.37959,0.16867
2904.45100,0.16470
2902.52242,0.16119
2900.59383,0.15802
2898.66524,0.15512
2896.73666,0.15237
2894.80807,0.14966
2892.87949,0.14699
2890.95090,0.14431
2889.02231,0.14182
2887.09373,0.13957
2885.16514,0.13757
2883.23655,0.13594
2881.30797,0.13473
2879.37938,0.13393
2877.45080,0.13343
2875.52221,0.13334
2873.59362,0.13366
2871.66504,0.13400
2869.73645,0.13427
2867.80786,0.13482
2865.87928,0.13605
2863.95069,0.13828
2862.02210,0.14176
2860.09352,0.14649
2858.16493,0.15210
2856.23635,0.15792
2854.30776,0.16286
2852.37917,0.16528
2850.45059,0.16310
2848.52200,0.15539
2846.59341,0.14428
2844.66483,0.13304
2842.73624,0.12324
2840.80766,0.11513
2838.87907,0.10867
2836.95048,0.10359
2835.02190,0.09951
2833.09331,0.09606
2831.16472,0.09324
2829.23614,0.09096
2827.30755,0.08903
2825.37896,0.08731
2823.45038,0.08567
2821.52179,0.08414
2819.59321,0.08273
2817.66462,0.08142
2815.73603,0.08025
2813.80745,0.07911
2811.87886,0.07797
2809.95027,0.07693
2808.02169,0.07603
2806.09310,0.07521
2804.16451,0.07440
2802.23593,0.07357
2800.30734,0.07273
2798.37876,0.07196
2796.45017,0.07129
2794.52158,0.07060
2792.59300,0.06983
2790.66441,0.06908
2788.73582,0.06844
2786.80724,0.06783
2784.87865,0.06719
2782.95007,0.06660
2781.02148,0.06612
2779.09289,0.06554
2777.16431,0.06492
2775.23572,0.06443
2773.30713,0.06400
2771.37855,0.06357
2769.44996,0.06313
2767.52137,0.06268
2765.59279,0.06228
2763.66420,0.06185
2761.73562,0.06145
2759.80703,0.06113
2757.87844,0.06078
2755.94986,0.06037
2754.02127,0.05996
2752.09268,0.05965
2750.16410,0.05942
2748.23551,0.05918
2746.30693,0.05886
2744.37834,0.05840
2742.44975,0.05805
2740.52117,0.05781
2738.59258,0.05744
2736.66399,0.05711
2734.73541,0.05683
2732.80682,0.05652
2730.87823,0.05619
2728.94965,0.05582
2727.02106,0.05544
2725.09248,0.05503
2723.16389,0.05464
2721.23530,0.05431
2719.30672,0.05389
2717.37813,0.05341
2715.44954,0.05297
2713.52096,0.05264
2711.59237,0.05235
2709.66379,0.05198
2707.73520,0.05153
2705.80661,0.05114
2703.87803,0.05087
2701.94944,0.05055
2700.02085,0.05016
2698.09227,0.04987
2696.16368,0.04963
2694.23509,0.04932
2692.30651,0.04906
2690.37792,0.04885
2688.44934,0.04858
2686.52075,0.04825
2684.59216,0.04795
2682.66358,0.04766
2680.73499,0.04740
2678.80640,0.04718
2676.87782,0.04684
2674.94923,0.04639
2673.02064,0.04603
2671.09206,0.04579
2669.16347,0.04551
2667.23489,0.04518
2665.30630,0.04481
2663.37771,0.04446
2661.44913,0.04413
2659.52054,0.04385
2657.59195,0.04360
2655.66337,0.04321
2653.73478,0.04284
2651.80620,0.04264
2649.87761,0.04245
2647.94902,0.04220
2646.02044,0.04189
2644.09185,0.04155
2642.16326,0.04129
2640.23468,0.04106
2638.30609,0.04075
2636.37750,0.04042
2634.44892,0.04015
2632.52033,0.03989
2630.59175,0.03952
2628.66316,0.03917
2626.73457,0.03894
2624.80599,0.03869
2622.87740,0.03840
2620.94881,0.03817
2619.02023,0.03788
2617.09164,0.03751
2615.16306,0.03722
2613.23447,0.03698
2611.30588,0.03665
2609.37730,0.03630
2607.44871,0.03601
2605.52012,0.03579
2603.59154,0.03554
2601.66295,0.03515
2599.73436,0.03479
2597.80578,0.03458
2595.87719,0.03437
2593.94861,0.03408
2592.02002,0.03374
2590.09143,0.03344
2588.16285,0.03318
2586.23426,0.03287
2584.30567,0.03260
2582.37709,0.03243
2580.44850,0.03220
2578.51991,0.03187
2576.59133,0.03158
2574.66274,0.03138
2572.73416,0.03115
2570.80557,0.03091
2568.87698,0.03069
2566.94840,0.03046
2565.01981,0.03021
2563.09122,0.02989
2561.16264,0.02959
2559.23405,0.02937
2557.30547,0.02920
2555.37688,0.02904
2553.44829,0.02877
2551.51971,0.02855
2549.59112,0.02843
2547.66253,0.02828
2545.73395,0.02803
2543.80536,0.02776
2541.87677,0.02756
2539.94819,0.02738
2538.01960,0.02721
2536.09102,0.02705
2534.16243,0.02683
2532.23384,0.02661
2530.30526,0.02641
2528.37667,0.02624
2526.44808,0.02604
2524.51950,0.02578
2522.59091,0.02556
2520.66233,0.02531
2518.73374,0.02515
2516.80515,0.02501
2514.87657,0.02472
2512.94798,0.02443
2511.01939,0.02422
2509.09081,0.02402
2507.16222,0.02383
2505.23363,0.02363
2503.30505,0.02336
2501.37646,0.02306
2499.44788,0.02283
2497.51929,0.02259
2495.59070,0.02234
2493.66212,0.02212
2491.73353,0.02192
2489.80494,0.02170
2487.87636,0.02146
2485.94777,0.02120
2484.01919,0.02099
2482.09060,0.02081
2480.16201,0.02054
2478.23343,0.02026
2476.30484,0.01998
2474.37625,0.01971
2472.44767,0.01943
2470.51908,0.01916
2468.59049,0.01899
2466.66191,0.01881
2464.73332,0.01859
2462.80474,0.01842
2460.87615,0.01817
2458.94756,0.01784
2457.01898,0.01759
2455.09039,0.01738
2453.16180,0.01714
2451.23322,0.01691
2449.30463,0.01668
2447.37604,0.01641
2445.44746,0.01615
2443.51887,0.01592
2441.59029,0.01575
2439.66170,0.01554
2437.73311,0.01525
2435.80453,0.01494
2433.87594,0.01471
2431.94735,0.01451
2430.01877,0.01425
2428.09018,0.01400
2426.16160,0.01380
2424.23301,0.01364
2422.30442,0.01344
2420.37584,0.01320
2418.44725,0.01292
2416.51866,0.01265
2414.59008,0.01247
2412.66149,0.01224
2410.73290,0.01204
2408.80432,0.01189
2406.87573,0.01166
2404.94715,0.01146
2403.01856,0.01123
2401.08997,0.01102
2399.16139,0.01081
2397.23280,0.01062
2395.30421,0.01046
2393.37563,0.01025
2391.44704,0.01001
2389.51846,0.00979
2387.58987,0.00965
2385.66128,0.00954
2383.73270,0.00945
2381.80411,0.00928
2379.87552,0.00902
2377.94694,0.00895
2376.01835,0.00891
2374.08976,0.00867
2372.16118,0.00846
2370.23259,0.00829
2368.30401,0.00808
2366.37542,0.00778
2364.44683,0.00747
2362.51825,0.00724
2360.58966,0.00703
2358.66107,0.00677
2356.73249,0.00643
2354.80390,0.00619
2352.87532,0.00609
2350.94673,0.00611
2349.01814,0.00642
2347.08956,0.00677
2345.16097,0.00669
2343.23238,0.00634
2341.30380,0.00610
2339.37521,0.00595
2337.44662,0.00583
2335.51804,0.00563
2333.58945,0.00541
2331.66087,0.00522
2329.73228,0.00505
2327.80369,0.00493
2325.87511,0.00486
2323.94652,0.00482
2322.01793,0.00473
2320.08935,0.00463
2318.16076,0.00452
2316.23217,0.00442
2314.30359,0.00441
2312.37500,0.00427
2310.44642,0.00404
2308.51783,0.00395
2306.58924,0.00390
2304.66066,0.00379
2302.73207,0.00368
2300.80348,0.00367
2298.87490,0.00367
2296.94631,0.00361
2295.01773,0.00353
2293.08914,0.00336
2291.16055,0.00324
2289.23197,0.00320
2287.30338,0.00306
2285.37479,0.00292
2283.44621,0.00288
2281.51762,0.00284
2279.58903,0.00275
2277.66045,0.00262
2275.73186,0.00256
2273.80328,0.00251
2271.87469,0.00243
2269.94610,0.00234
2268.01752,0.00225
2266.08893,0.00220
2264.16034,0.00209
2262.23176,0.00192
2260.30317,0.00191
2258.37459,0.00196
2256.44600,0.00191
2254.51741,0.00177
2252.58883,0.00164
2250.66024,0.00163
2248.73165,0.00162
2246.80307,0.00157
2244.87448,0.00153
2242.94589,0.00144
2241.01731,0.00142
2239.08872,0.00142
2237.16014,0.00138
2235.23155,0.00127
2233.30296,0.00111
2231.37438,0.00104
2229.44579,0.00098
2227.51720,0.00093
2225.58862,0.00097
2223.66003,0.00098
2221.73145,0.00086
2219.80286,0.00069
2217.87427,0.00062
2215.94569,0.00057
2214.01710,0.00046
2212.08851,0.00040
2210.15993,0.00040
2208.23134,0.00037
2206.30275,0.00029
2204.37417,0.00026
2202.44558,0.00034
2200.51700,0.00035
2198.58841,0.00023
2196.65982,0.00013
2194.73124,0.00012
2192.80265,0.00020
2190.87406,0.00020
2188.94548,0.00016
2187.01689,0.00018
2185.08830,0.00015
2183.15972,0.00017
2181.23113,0.00022
2179.30255,0.00021
2177.37396,0.00025
2175.44537,0.00028
2173.51679,0.00021
2171.58820,0.00007
2169.65961,0.00000
2167.73103,0.00009
2165.80244,0.00023
2163.87386,0.00028
2161.94527,0.00023
2160.01668,0.00019
2158.08810,0.00020
2156.15951,0.00024
2154.23092,0.00029
2152.30234,0.00031
2150.37375,0.00032
2148.44516,0.00035
2146.51658,0.00037
2144.58799,0.00033
2142.65941,0.00031
2140.73082,0.00034
2138.80223,0.00036
2136.87365,0.00035
2134.94506,0.00031
2133.01647,0.00026
2131.08789,0.00022
2129.15930,0.00020
2127.23072,0.00021
2125.30213,0.00017
2123.37354,0.00014
2121.44496,0.00017
2119.51637,0.00016
2117.58778,0.00012
2115.65920,0.00012
2113.73061,0.00011
2111.80202,0.00009
2109.87344,0.00005
2107.94485,0.00000
2106.01627,0.00003
2104.08768,0.00004
2102.15909,0.00003
2100.23051,0.00004
2098.30192,0.00004
2096.37333,0.00004
2094.44475,0.00006
2092.51616,0.00005
2090.58758,0.00005
2088.65899,0.00009
2086.73040,0.00009
2084.80182,0.00002
2082.87323,-0.00003
2080.94464,0.00000
2079.01606,-0.00003
2077.08747,-0.00009
2075.15888,-0.00008
2073.23030,-0.00006
2071.30171,-0.00008
2069.37313,-0.00014
2067.44454,-0.00015
2065.51595,-0.00011
2063.58737,-0.00017
2061.65878,-0.00018
2059.73019,-0.00006
2057.80161,0.00003
2055.87302,0.00005
2053.94443,0.00006
2052.01585,0.00010
2050.08726,0.00013
2048.15868,0.00025
2046.23009,0.00042
2044.30150,0.00054
2042.37292,0.00067
2040.44433,0.00085
2038.51574,0.00109
2036.58716,0.00134
2034.65857,0.00152
2032.72999,0.00167
2030.80140,0.00183
2028.87281,0.00195
2026.94423,0.00200
2025.01564,0.00198
2023.08705,0.00197
2021.15847,0.00204
2019.22988,0.00215
2017.30129,0.00227
2015.37271,0.00239
2013.44412,0.00254
2011.51554,0.00276
2009.58695,0.00301
2007.65836,0.00322
2005.72978,0.00337
2003.80119,0.00346
2001.87260,0.00351
1999.94402,0.00355
1998.01543,0.00355
1996.08685,0.00349
1994.15826,0.00345
1992.22967,0.00331
1990.30109,0.00317
1988.37250,0.00311
1986.44391,0.00300
1984.51533,0.00292
1982.58674,0.00293
1980.65815,0.00290
1978.72957,0.00279
1976.80098,0.00268
1974.87240,0.00259
1972.94381,0.00245
1971.01522,0.00229
1969.08664,0.00212
1967.15805,0.00188
1965.22946,0.00159
1963.30088,0.00140
1961.37229,0.00126
1959.44371,0.00110
1957.51512,0.00101
1955.58653,0.00092
1953.65795,0.00076
1951.72936,0.00068
1949.80077,0.00068
1947.87219,0.00061
1945.94360,0.00054
1944.01501,0.00044
1942.08643,0.00023
1940.15784,0.00013
1938.22926,0.00014
1936.30067,0.00002
1934.37208,-0.00006
1932.44350,-0.00013
1930.51491,-0.00016
1928.58632,-0.00007
1926.65774,-0.00004
1924.72915,0.00000
1922.80056,-0.00008
1920.87198,0.00001
1918.94339,0.00028
1917.01481,0.00034
1915.08622,0.00058
1913.15763,0.00103
1911.22905,0.00143
1909.30046,0.00192
1907.37187,0.00244
1905.44329,0.00297
1903.51470,0.00352
1901.58612,0.00409
1899.65753,0.00460
1897.72894,0.00516
1895.80036,0.00571
1893.87177,0.00607
1891.94318,0.00660
1890.01460,0.00707
1888.08601,0.00729
1886.15742,0.00759
1884.22884,0.00781
1882.30025,0.00805
1880.37167,0.00826
1878.44308,0.00839
1876.51449,0.00858
1874.58591,0.00865
1872.65732,0.00878
1870.72873,0.00890
1868.80015,0.00865
1866.87156,0.00816
1864.94298,0.00782
1863.01439,0.00745
1861.08580,0.00681
1859.15722,0.00613
1857.22863,0.00538
1855.30004,0.00451
1853.37146,0.00355
1851.44287,0.00280
1849.51428,0.00215
1847.58570,0.00155
1845.65711,0.00127
1843.72853,0.00056
1841.79994,0.00000
1839.87135,-0.00016
1837.94277,-0.00045
1836.01418,-0.00063
1834.08559,-0.00080
1832.15701,-0.00068
1830.22842,-0.00072
1828.29984,-0.00097
1826.37125,-0.00070
1824.44266,-0.00052
1822.51408,-0.00031
1820.58549,0.00000
1818.65690,0.00030
1816.72832,0.00077
1814.79973,0.00123
1812.87114,0.00186
1810.94256,0.00240
1809.01397,0.00299
1807.08539,0.00381
1805.15680,0.00467
1803.22821,0.00569
1801.29963,0.00677
1799.37104,0.00780
1797.44245,0.00888
1795.51387,0.01033
1793.58528,0.01192
1791.65669,0.01303
1789.72811,0.01422
1787.79952,0.01591
1785.87094,0.01756
1783.94235,0.01914
1782.01376,0.02077
1780.08518,0.02232
1778.15659,0.02388
1776.22800,0.02554
1774.29942,0.02730
1772.37083,0.02857
1770.44225,0.02970
1768.51366,0.03136
1766.58507,0.03280
1764.65649,0.03447
1762.72790,0.03629
1760.79931,0.03779
1758.87073,0.03987
1756.94214,0.04212
1755.01355,0.04449
1753.08497,0.04733
1751.15638,0.04998
1749.22780,0.05269
1747.29921,0.05610
1745.37062,0.05983
1743.44204,0.06364
1741.51345,0.06758
1739.58486,0.07128
1737.65628,0.07494
1735.72769,0.07888
1733.79911,0.08170
1731.87052,0.08399
1729.94193,0.08711
1728.01335,0.08983
1726.08476,0.09258
1724.15617,0.09548
1722.22759,0.09841
1720.29900,0.10198
1718.37041,0.10503
1716.44183,0.10729
1714.51324,0.10969
1712.58466,0.11242
1710.65607,0.11501
1708.72748,0.11732
1706.79890,0.11971
1704.87031,0.12181
1702.94172,0.12482
1701.01314,0.12797
1699.08455,0.13011
1697.15596,0.13333
1695.22738,0.13625
1693.29879,0.13901
1691.37021,0.14266
1689.44162,0.14561
1687.51303,0.14901
1685.58445,0.15261
1683.65586,0.15486
1681.72727,0.15773
1679.79869,0.16125
1677.87010,0.16475
1675.94152,0.16780
1674.01293,0.17027
1672.08434,0.17315
1670.15576,0.17568
1668.22717,0.17749
1666.29858,0.17953
1664.37000,0.18165
1662.44141,0.18295
1660.51282,0.18382
1658.58424,0.18466
1656.65565,0.18552
1654.72707,0.18649
1652.79848,0.18499
1650.86989,0.18343
1648.94131,0.18399
1647.01272,0.18355
1645.08413,0.18231
1643.15555,0.18194
1641.22696,0.18197
1639.29838,0.18194
1637.36979,0.18219
1635.44120,0.18149
1633.51262,0.18038
1631.58403,0.18045
1629.65544,0.17990
1627.72686,0.17852
1625.79827,0.17676
1623.86968,0.17466
1621.94110,0.17197
1620.01251,0.16972
1618.08393,0.16804
1616.15534,0.16494
1614.22675,0.16241
1612.29817,0.16066
1610.36958,0.15871
1608.44099,0.15693
1606.51241,0.15501
1604.58382,0.15314
1602.65524,0.15099
1600.72665,0.14884
1598.79806,0.14674
1596.86948,0.14476
1594.94089,0.14287
1593.01230,0.14098
1591.08372,0.13923
1589.15513,0.13729
1587.22654,0.13536
1585.29796,0.13328
1583.36937,0.13142
1581.44079,0.12964
1579.51220,0.12815
1577.58361,0.12702
1575.65503,0.12486
1573.72644,0.12348
1571.79785,0.12339
1569.86927,0.12277
1567.94068,0.12194
1566.01209,0.12190
1564.08351,0.12214
1562.15492,0.12291
1560.22634,0.12361
1558.29775,0.12264
1556.36916,0.12279
1554.44058,0.12363
1552.51199,0.12379
1550.58340,0.12412
1548.65482,0.12407
1546.72623,0.12435
1544.79765,0.12442
1542.86906,0.12416
1540.94047,0.12395
1539.01189,0.12216
1537.08330,0.12118
1535.15471,0.12102
1533.22613,0.11998
1531.29754,0.11875
1529.36895,0.11784
1527.44037,0.11670
1525.51178,0.11511
1523.58320,0.11434
1521.65461,0.11353
1519.72602,0.11238
1517.79744,0.11178
1515.86885,0.11051
1513.94026,0.10858
1512.01168,0.10586
1510.08309,0.10278
1508.15451,0.09998
1506.22592,0.09552
1504.29733,0.09108
1502.36875,0.08824
1500.44016,0.08518
1498.51157,0.08183
1496.58299,0.07831
1494.65440,0.07500
1492.72581,0.07289
1490.79723,0.07091
1488.86864,0.06876
1486.94006,0.06723
1485.01147,0.06639
1483.08288,0.06624
1481.15430,0.06657
1479.22571,0.06761
1477.29712,0.06961
1475.36854,0.07260
1473.43995,0.07684
1471.51137,0.08205
1469.58278,0.08782
1467.65419,0.09283
1465.72561,0.09547
1463.79702,0.09648
1461.86843,0.09724
1459.93985,0.09840
1458.01126,0.09939
1456.08267,0.09925
1454.15409,0.09941
1452.22550,0.09974
1450.29692,0.09967
1448.36833,0.09952
1446.43974,0.09907
1444.51116,0.09882
1442.58257,0.09861
1440.65398,0.09851
1438.72540,0.09890
1436.79681,0.09866
1434.86822,0.09812
1432.93964,0.09821
1431.01105,0.09805
1429.08247,0.09773
1427.15388,0.09783
1425.22529,0.09799
1423.29671,0.09815
1421.36812,0.09857
1419.43953,0.09864
1417.51095,0.09842
1415.58236,0.09871
1413.65378,0.09896
1411.72519,0.09892
1409.79660,0.09878
1407.86802,0.09844
1405.93943,0.09812
1404.01084,0.09751
1402.08226,0.09674
1400.15367,0.09577
1398.22508,0.09442
1396.29650,0.09320
1394.36791,0.09179
1392.43933,0.09036
1390.51074,0.08945
1388.58215,0.08824
1386.65357,0.08573
1384.72498,0.08348
1382.79639,0.08425
1380.86781,0.08692
1378.93922,0.08859
1377.01064,0.08880
1375.08205,0.08813
1373.15346,0.08718
1371.22488,0.08623
1369.29629,0.08500
1367.36770,0.08350
1365.43912,0.08209
1363.51053,0.08064
1361.58194,0.07919
1359.65336,0.07809
1357.72477,0.07719
1355.79619,0.07627
1353.86760,0.07542
1351.93901,0.07471
1350.01043,0.07419
1348.08184,0.07376
1346.15325,0.07315
1344.22467,0.07255
1342.29608,0.07218
1340.36750,0.07167
1338.43891,0.07107
1336.51032,0.07069
1334.58174,0.07026
1332.65315,0.06969
1330.72456,0.06934
1328.79598,0.06911
1326.86739,0.06883
1324.93880,0.06858
1323.01022,0.06840
1321.08163,0.06816
1319.15305,0.06794
1317.22446,0.06785
1315.29587,0.06766
1313.36729,0.06736
1311.43870,0.06721
1309.51011,0.06704
1307.58153,0.06681
1305.65294,0.06670
1303.72435,0.06660
1301.79577,0.06662
1299.86718,0.06677
1297.93860,0.06702
1296.01001,0.06744
1294.08142,0.06806
1292.15284,0.06882
1290.22425,0.06965
1288.29566,0.07071
1286.36708,0.07193
1284.43849,0.07340
1282.50991,0.07510
1280.58132,0.07671
1278.65273,0.07852
1276.72415,0.08036
1274.79556,0.08222
1272.86697,0.08441
1270.93839,0.08666
1269.00980,0.08926
1267.08121,0.09220
1265.15263,0.09526
1263.22404,0.09882
1261.29546,0.10302
1259.36687,0.10782
1257.43828,0.11306
1255.50970,0.11877
1253.58111,0.12489
1251.65252,0.13131
1249.72394,0.13777
1247.79535,0.14396
1245.86677,0.15016
1243.93818,0.15600
1242.00959,0.16126
1240.08101,0.16623
1238.15242,0.17069
1236.22383,0.17463
1234.29525,0.17836
1232.36666,0.18196
1230.43807,0.18526
1228.50949,0.18821
1226.58090,0.19097
1224.65232,0.19367
1222.72373,0.19644
1220.79514,0.19921
1218.86656,0.20195
1216.93797,0.20476
1215.00938,0.20760
1213.08080,0.21042
1211.15221,0.21336
1209.22363,0.21621
1207.29504,0.21886
1205.36645,0.22149
1203.43787,0.22375
1201.50928,0.22585
1199.58069,0.22818
1197.65211,0.23047
1195.72352,0.23266
1193.79493,0.23469
1191.86635,0.23673
1189.93776,0.23882
1188.00918,0.24066
1186.08059,0.24243
1184.15200,0.24427
1182.22342,0.24612
1180.29483,0.24827
1178.36624,0.25084
1176.43766,0.25367
1174.50907,0.25665
1172.58048,0.25968
1170.65190,0.26284
1168.72331,0.26612
1166.79473,0.26937
1164.86614,0.27261
1162.93755,0.27524
1161.00897,0.27705
1159.08038,0.27849
1157.15179,0.27958
1155.22321,0.28064
1153.29462,0.28235
1151.36604,0.28464
1149.43745,0.28691
1147.50886,0.28914
1145.58028,0.29175
1143.65169,0.29479
1141.72310,0.29798
1139.79452,0.30122
1137.86593,0.30478
1135.93734,0.30886
1134.00876,0.31353
1132.08017,0.31802
1130.15159,0.32202
1128.22300,0.32683
1126.29441,0.33265
1124.36583,0.33859
1122.43724,0.34461
1120.50865,0.35079
1118.58007,0.35697
1116.65148,0.36348
1114.72290,0.37052
1112.79431,0.37754
1110.86572,0.38430
1108.93714,0.39090
1107.00855,0.39685
1105.07996,0.40204
1103.15138,0.40647
1101.22279,0.40991
1099.29420,0.41287
1097.36562,0.41479
1095.43703,0.41570
1093.50845,0.41671
1091.57986,0.41745
1089.65127,0.41723
1087.72269,0.41603
1085.79410,0.41473
1083.86551,0.41374
1081.93693,0.41265
1080.00834,0.41122
1078.07976,0.40938
1076.15117,0.40738
1074.22258,0.40532
1072.29400,0.40396
1070.36541,0.40304
1068.43682,0.40188
1066.50824,0.40090
1064.57965,0.39959
1062.65106,0.39820
1060.72248,0.39664
1058.79389,0.39423
1056.86531,0.39149
1054.93672,0.38891
1053.00813,0.38684
1051.07955,0.38468
1049.15096,0.38268
1047.22237,0.38186
1045.29379,0.38209
1043.36520,0.38352
1041.43661,0.38546
1039.50803,0.38736
1037.57944,0.38927
1035.65086,0.39050
1033.72227,0.39090
1031.79368,0.39049
1029.86510,0.38914
1027.93651,0.38669
1026.00792,0.38358
1024.07934,0.38029
1022.15075,0.37670
1020.22217,0.37345
1018.29358,0.37043
1016.36499,0.36704
1014.43641,0.36380
1012.50782,0.36083
1010.57923,0.35771
1008.65065,0.35407
1006.72206,0.35009
1004.79347,0.34603
1002.86489,0.34153
1000.93630,0.33638
999.00772,0.33087
997.07913,0.32523
995.15054,0.31947
993.22196,0.31364
991.29337,0.30763
989.36478,0.30111
987.43620,0.29400
985.50761,0.28631
983.57903,0.27836
981.65044,0.26989
979.72185,0.26016
977.79327,0.24954
975.86468,0.23887
973.93609,0.22823
972.00751,0.21737
970.07892,0.20664
968.15033,0.19651
966.22175,0.18703
964.29316,0.17819
962.36458,0.17005
960.43599,0.16261
958.50740,0.15605
956.57882,0.15054
954.65023,0.14573
952.72164,0.14152
950.79306,0.13770
948.86447,0.13426
946.93589,0.13163
945.00730,0.12967
943.07871,0.12793
941.15013,0.12592
939.22154,0.12400
937.29295,0.12270
935.36437,0.12156
933.43578,0.12027
931.50719,0.11876
929.57861,0.11748
927.65002,0.11646
925.72144,0.11541
923.79285,0.11487
921.86426,0.11445
919.93568,0.11374
918.00709,0.11349
916.07850,0.11349
914.14992,0.11268
912.22133,0.11077
910.29274,0.10779
908.36416,0.10342
906.43557,0.09795
904.50699,0.09179
902.57840,0.08520
900.64981,0.07875
898.72123,0.07243
896.79264,0.06638
894.86405,0.06091
892.93547,0.05616
891.00688,0.05208
889.07830,0.04813
887.14971,0.04428
885.22112,0.04056
883.29254,0.03705
881.36395,0.03402
879.43536,0.03101
877.50678,0.02782
875.57819,0.02479
873.64960,0.02171
871.72102,0.01828
869.79243,0.01495
867.86385,0.01219
865.93526,0.00968
864.00667,0.00718
862.07809,0.00493
860.14950,0.00318
858.22091,0.00167
856.29233,0.00049
854.36374,0.00000
852.43516,-0.00021
850.50657,0.00034
848.57798,0.00172
846.64940,0.00285
844.72081,0.00425
842.79222,0.00682
840.86364,0.01039
838.93505,0.01420
837.00646,0.01772
835.07788,0.02172
833.14929,0.02582
831.22071,0.02852
829.29212,0.03008
827.36353,0.03150
825.43495,0.03240
823.50636,0.03256
821.57777,0.03320
819.64919,0.03443
817.72060,0.03564
815.79201,0.03767
813.86343,0.04062
811.93484,0.04427
810.00626,0.04945
808.07767,0.05698
806.14908,0.06665
804.22050,0.07615
802.29191,0.08291
800.36332,0.08587
798.43474,0.08493
796.50615,0.08046
794.57757,0.07362
792.64898,0.06667
790.72039,0.06160
788.79181,0.05854
786.86322,0.05699
784.93463,0.05753
783.00605,0.05969
781.07746,0.06103
779.14887,0.05939
777.22029,0.05430
775.29170,0.04733
773.36312,0.03995
771.43453,0.03364
769.50594,0.02967
767.57736,0.02681
765.64877,0.02522
763.72018,0.02538
761.79160,0.02573
759.86301,0.02627
757.93443,0.02689
756.00584,0.02706
754.07725,0.02680
752.14867,0.02589
750.22008,0.02493
748.29149,0.02395
746.36291,0.02228
744.43432,0.02005
742.50573,0.01777
740.57715,0.01549
738.64856,0.01295
736.71998,0.01008
734.79139,0.00743
732.86280,0.00602
730.93422,0.00557
729.00563,0.00534
727.07704,0.00534
725.14846,0.00541
723.21987,0.00558
721.29129,0.00571
719.36270,0.00472
717.43411,0.00270
715.50553,0.00150
713.57694,0.00132
711.64835,0.00144
709.71977,0.00230
707.79118,0.00357
705.86259,0.00496
703.93401,0.00723
702.00542,0.01087
700.07684,0.01545
698.14825,0.02058
696.21966,0.02519
694.29108,0.02524
692.36249,0.02047
690.43390,0.01528
688.50532,0.01175
686.57673,0.01032
684.64814,0.00981
682.71956,0.00821
680.79097,0.00638
678.86239,0.00593
676.93380,0.00584
675.00521,0.00498
673.07663,0.00395
671.14804,0.00304
669.21945,0.00152
667.29087,0.00000
665.36228,0.00054
663.43370,0.00142
661.50511,0.00038
659.57652,-0.00045
657.64794,0.00057
655.71935,0.00159
653.79076,0.00175
651.86218,0.00259
649.93359,0.00283
648.00500,0.00225
646.07642,0.00298
644.14783,0.00324
642.21925,0.00330
640.29066,0.00411
638.36207,0.00414
636.43349,0.00430
634.50490,0.00475
632.57631,0.00495
630.64773,0.00487
628.71914,0.00504
626.79056,0.00645
624.86197,0.00801
622.93338,0.00834
621.00480,0.00813
619.07621,0.00882
617.14762,0.00989
615.21904,0.01093
613.29045,0.01157
611.36186,0.01203
609.43328,0.01389
607.50469,0.01499
605.57611,0.01501
603.64752,0.01678
601.71893,0.01963
599.79035,0.02223
597.86176,0.02492
595.93317,0.02783
594.00459,0.02986
592.07600,0.03172
590.14742,0.03556
588.21883,0.04021
586.29024,0.04430
584.36166,0.04839
582.43307,0.05153
580.50448,0.05489
578.57590,0.05981
576.64731,0.06370
574.71872,0.06736
572.79014,0.07172
570.86155,0.07637
568.93297,0.08197
567.00438,0.08740
565.07579,0.09366
563.14721,0.09981
561.21862,0.10546
559.29003,0.11114
557.36145,0.11588
555.43286,0.12122
553.50427,0.12531
551.57569,0.12873
549.64710,0.13367
547.71852,0.13984
545.78993,0.14638
543.86134,0.15063
541.93276,0.15552
540.00417,0.16132
538.07558,0.16605
536.14700,0.17122
534.21841,0.17726
532.28983,0.18375
530.36124,0.18664
528.43265,0.18556
526.50407,0.18254
524.57548,0.17996
522.64689,0.17846
520.71831,0.17325
518.78972,0.16679
516.86113,0.16154
514.93255,0.15605
513.00396,0.15085
511.07538,0.14595
509.14679,0.14215
507.21820,0.13891
505.28962,0.13659
503.36103,0.13668
501.43244,0.14024
499.50386,0.14611
497.57527,0.15188
495.64669,0.15850
493.71810,0.16812
491.78951,0.18119
489.86093,0.19356
487.93234,0.20590
486.00375,0.21970
484.07517,0.23186
482.14658,0.24475
480.21799,0.25880
478.28941,0.27076
476.36082,0.27558
474.43224,0.27783
472.50365,0.27973
470.57506,0.27291
468.64648,0.26416
466.71789,0.25739
464.78930,0.24831
462.86072,0.23550
460.93213,0.22148
459.00355,0.20538
457.07496,0.18875
455.14637,0.17614
453.21779,0.16400
451.28920,0.15474
449.36061,0.14624
447.43203,0.13954
445.50344,0.13427
443.57485,0.12239
441.64627,0.11316
439.71768,0.10990
437.78910,0.10470
435.86051,0.09824
433.93192,0.09489
432.00334,0.09463
430.07475,0.09980
428.14616,0.10204
426.21758,0.08792
424.28899,0.07006
422.36040,0.06169
420.43182,0.06611
418.50323,0.07190
416.57465,0.06277
414.64606,0.04796
412.71747,0.03574
410.78889,0.02722
408.86030,0.02080
406.93171,0.01161
405.00313,0.00000
403.07454,0.00036
401.14596,0.00631
399.21737,0.00000
