3747.24323,0.00093
3745.31464,0.00311
3743.38605,0.00007
3741.45747,0.00000
3739.52888,0.00337
3737.60030,0.00451
3735.67171,0.00412
3733.74312,0.00391
3731.81454,0.00420
3729.88595,0.00462
3727.95736,0.00648
3726.02878,0.00762
3724.10019,0.00791
3722.17161,0.00949
3720.24302,0.01055
3718.31443,0.01252
3716.38585,0.01505
3714.45726,0.01848
3712.52867,0.02159
3710.60009,0.02267
3708.67150,0.02578
3706.74291,0.02940
3704.81433,0.03343
3702.88574,0.03725
3700.95716,0.03939
3699.02857,0.04180
3697.09998,0.04320
3695.17140,0.04425
3693.24281,0.04491
3691.31422,0.04616
3689.38564,0.04701
3687.45705,0.04626
3685.52846,0.04813
3683.59988,0.05155
3681.67129,0.05511
3679.74271,0.05862
3677.81412,0.06338
3675.88553,0.06682
3673.95695,0.06866
3672.02836,0.07494
3670.09977,0.07950
3668.17119,0.08228
3666.24260,0.08805
3664.31402,0.09333
3662.38543,0.09815
3660.45684,0.10239
3658.52826,0.10721
3656.59967,0.11110
3654.67108,0.11349
3652.74250,0.11839
3650.81391,0.12265
3648.88532,0.12432
3646.95674,0.12617
3645.02815,0.12989
3643.09957,0.13400
3641.17098,0.13716
3639.24239,0.14009
3637.31381,0.14303
3635.38522,0.14636
3633.45663,0.14926
3631.52805,0.15320
3629.59946,0.15601
3627.67088,0.15528
3625.74229,0.15684
3623.81370,0.15940
3621.88512,0.16082
3619.95653,0.16072
3618.02794,0.15823
3616.09936,0.15701
3614.17077,0.15625
3612.24218,0.15472
3610.31360,0.15355
3608.38501,0.15191
3606.45643,0.15033
3604.52784,0.14983
3602.59925,0.14965
3600.67067,0.14884
3598.74208,0.14803
3596.81349,0.14752
3594.88491,0.14691
3592.95632,0.14628
3591.02774,0.14641
3589.09915,0.14670
3587.17056,0.14585
3585.24198,0.14545
3583.31339,0.14610
3581.38480,0.14663
3579.45622,0.14723
3577.52763,0.14793
3575.59904,0.14858
3573.67046,0.14922
3571.74187,0.15018
3569.81329,0.15164
3567.88470,0.15266
3565.95611,0.15301
3564.02753,0.15386
3562.09894,0.15505
3560.17035,0.15599
3558.24177,0.15711
3556.31318,0.15823
3554.38459,0.15919
3552.45601,0.16016
3550.52742,0.16112
3548.59884,0.16232
3546.67025,0.16348
3544.74166,0.16426
3542.81308,0.16507
3540.88449,0.16617
3538.95590,0.16748
3537.02732,0.16877
3535.09873,0.16973
3533.17015,0.17069
3531.24156,0.17198
3529.31297,0.17308
3527.38439,0.17399
3525.45580,0.17507
3523.52721,0.17616
3521.59863,0.17727
3519.67004,0.17847
3517.74145,0.17939
3515.81287,0.18033
3513.88428,0.18165
3511.95570,0.18280
3510.02711,0.18374
3508.09852,0.18469
3506.16994,0.18576
3504.24135,0.18682
3502.31276,0.18770
3500.38418,0.18881
3498.45559,0.18993
3496.52701,0.19105
3494.59842,0.19217
3492.66983,0.19298
3490.74125,0.19393
3488.81266,0.19491
3486.88407,0.19583
3484.95549,0.19691
3483.02690,0.19783
3481.09831,0.19837
3479.16973,0.19910
3477.24114,0.20015
3475.31256,0.20113
3473.38397,0.20216
3471.45538,0.20292
3469.52680,0.20370
3467.59821,0.20469
3465.66962,0.20539
3463.74104,0.20618
3461.81245,0.20702
3459.88386,0.20783
3457.95528,0.20865
3456.02669,0.20938
3454.09811,0.21029
3452.16952,0.21119
3450.24093,0.21197
3448.31235,0.21257
3446.38376,0.21304
3444.45517,0.21381
3442.52659,0.21473
3440.59800,0.21556
3438.66942,0.21628
3436.74083,0.21687
3434.81224,0.21756
3432.88366,0.21826
3430.95507,0.21878
3429.02648,0.21944
3427.09790,0.22019
3425.16931,0.22073
3423.24072,0.22111
3421.31214,0.22141
3419.38355,0.22185
3417.45497,0.22242
3415.52638,0.22299
3413.59779,0.22338
3411.66921,0.22381
3409.74062,0.22442
3407.81203,0.22496
3405.88345,0.22538
3403.95486,0.22554
3402.02628,0.22567
3400.09769,0.22611
3398.16910,0.22667
3396.24052,0.22707
3394.31193,0.22729
3392.38334,0.22748
3390.45476,0.22771
3388.52617,0.22816
3386.59758,0.22852
3384.66900,0.22863
3382.74041,0.22882
3380.81183,0.22908
3378.88324,0.22945
3376.95465,0.22974
3375.02607,0.22981
3373.09748,0.22994
3371.16889,0.23023
3369.24031,0.23060
3367.31172,0.23072
3365.38314,0.23073
3363.45455,0.23101
3361.52596,0.23136
3359.59738,0.23139
3357.66879,0.23141
3355.74020,0.23174
3353.81162,0.23194
3351.88303,0.23186
3349.95444,0.23196
3348.02586,0.23217
3346.09727,0.23225
3344.16869,0.23242
3342.24010,0.23267
3340.31151,0.23283
3338.38293,0.23280
3336.45434,0.23273
3334.52575,0.23273
3332.59717,0.23272
3330.66858,0.23271
3328.73999,0.23268
3326.81141,0.23268
3324.88282,0.23257
3322.95424,0.23242
3321.02565,0.23241
3319.09706,0.23225
3317.16848,0.23227
3315.23989,0.23241
3313.31130,0.23227
3311.38272,0.23209
3309.45413,0.23184
3307.52555,0.23155
3305.59696,0.23135
3303.66837,0.23117
3301.73979,0.23102
3299.81120,0.23095
3297.88261,0.23081
3295.95403,0.23055
3294.02544,0.23022
3292.09685,0.22997
3290.16827,0.22975
3288.23968,0.22923
3286.31110,0.22870
3284.38251,0.22839
3282.45392,0.22797
3280.52534,0.22745
3278.59675,0.22700
3276.66816,0.22653
3274.73958,0.22567
3272.81099,0.22463
3270.88241,0.22381
3268.95382,0.22317
3267.02523,0.22244
3265.09665,0.22148
3263.16806,0.22057
3261.23947,0.21969
3259.31089,0.21867
3257.38230,0.21762
3255.45371,0.21661
3253.52513,0.21577
3251.59654,0.21495
3249.66796,0.21416
3247.73937,0.21329
3245.81078,0.21221
3243.88220,0.21118
3241.95361,0.21033
3240.02502,0.20968
3238.09644,0.20894
3236.16785,0.20804
3234.23927,0.20719
3232.31068,0.20639
3230.38209,0.20565
3228.45351,0.20506
3226.52492,0.20440
3224.59633,0.20350
3222.66775,0.20259
3220.73916,0.20183
3218.81057,0.20111
3216.88199,0.20029
3214.95340,0.19943
3213.02482,0.19870
3211.09623,0.19796
3209.16764,0.19715
3207.23906,0.19638
3205.31047,0.19557
3203.38188,0.19467
3201.45330,0.19388
3199.52471,0.19323
3197.59612,0.19258
3195.66754,0.19172
3193.73895,0.19068
3191.81037,0.18965
3189.88178,0.18883
3187.95319,0.18817
3186.02461,0.18736
3184.09602,0.18629
3182.16743,0.18530
3180.23885,0.18460
3178.31026,0.18381
3176.38168,0.18281
3174.45309,0.18194
3172.52450,0.18106
3170.59592,0.18007
3168.66733,0.17919
3166.73874,0.17835
3164.81016,0.17745
3162.88157,0.17658
3160.95298,0.17581
3159.02440,0.17503
3157.09581,0.17403
3155.16723,0.17304
3153.23864,0.17232
3151.31005,0.17166
3149.38147,0.17086
3147.45288,0.17000
3145.52429,0.16917
3143.59571,0.16835
3141.66712,0.16770
3139.73854,0.16716
3137.80995,0.16647
3135.88136,0.16584
3133.95278,0.16522
3132.02419,0.16440
3130.09560,0.16377
3128.16702,0.16329
3126.23843,0.16268
3124.30984,0.16223
3122.38126,0.16177
3120.45267,0.16114
3118.52409,0.16065
3116.59550,0.16013
3114.66691,0.15961
3112.73833,0.15916
3110.80974,0.15865
3108.88115,0.15827
3106.95257,0.15793
3105.02398,0.15746
3103.09540,0.15698
3101.16681,0.15659
3099.23822,0.15627
3097.30964,0.15581
3095.38105,0.15530
3093.45246,0.15501
3091.52388,0.15466
3089.59529,0.15420
3087.66670,0.15386
3085.73812,0.15352
3083.80953,0.15313
3081.88095,0.15254
3079.95236,0.15177
3078.02377,0.15127
3076.09519,0.15091
3074.16660,0.15036
3072.23801,0.14979
3070.30943,0.14947
3068.38084,0.14915
3066.45225,0.14856
3064.52367,0.14787
3062.59508,0.14716
3060.66650,0.14646
3058.73791,0.14577
3056.80932,0.14510
3054.88074,0.14443
3052.95215,0.14368
3051.02356,0.14306
3049.09498,0.14248
3047.16639,0.14182
3045.23781,0.14113
3043.30922,0.14037
3041.38063,0.13986
3039.45205,0.13947
3037.52346,0.13904
3035.59487,0.13852
3033.66629,0.13795
3031.73770,0.13755
3029.80911,0.13713
3027.88053,0.13670
3025.95194,0.13631
3024.02336,0.13594
3022.09477,0.13566
3020.16618,0.13537
3018.23760,0.13511
3016.30901,0.13499
3014.38042,0.13508
3012.45184,0.13516
3010.52325,0.13514
3008.59467,0.13533
3006.66608,0.13570
3004.73749,0.13609
3002.80891,0.13645
3000.88032,0.13695
2998.95173,0.13761
2997.02315,0.13834
2995.09456,0.13912
2993.16597,0.14000
2991.23739,0.14107
2989.30880,0.14225
2987.38022,0.14363
2985.45163,0.14529
2983.52304,0.14719
2981.59446,0.14911
2979.66587,0.15105
2977.73728,0.15327
2975.80870,0.15558
2973.88011,0.15802
2971.95153,0.16071
2970.02294,0.16341
2968.09435,0.16616
2966.16577,0.16903
2964.23718,0.17189
2962.30859,0.17459
2960.38001,0.17716
2958.45142,0.17947
2956.52283,0.18138
2954.59425,0.18311
2952.66566,0.18485
2950.73708,0.18683
2948.80849,0.18925
2946.87990,0.19226
2944.95132,0.19597
2943.02273,0.20035
2941.09414,0.20532
2939.16556,0.21075
2937.23697,0.21655
2935.30838,0.22247
2933.37980,0.22827
2931.45121,0.23381
2929.52263,0.23881
2927.59404,0.24305
2925.66545,0.24617
2923.73687,0.24795
2921.80828,0.24815
2919.87969,0.24622
2917.95111,0.24138
2916.02252,0.23302
2914.09394,0.22233
2912.16535,0.21199
2910.23676,0.20355
2908.30818,0.19695
2906.37959,0.19173
2904.45100,0.18743
2902.52242,0.18376
2900.59383,0.18041
2898.66524,0.17709
2896.73666,0.17391
2894.80807,0.17087
2892.87949,0.16809
2890.95090,0.16551
2889.02231,0.16287
2887.09373,0.16040
2885.16514,0.15825
2883.23655,0.15645
2881.30797,0.15504
2879.37938,0.15419
2877.45080,0.15384
2875.52221,0.15366
2873.59362,0.15376
2871.66504,0.15419
2869.73645,0.15473
2867.80786,0.15544
2865.87928,0.15673
2863.95069,0.15916
2862.02210,0.16311
2860.09352,0.16861
2858.16493,0.17503
2856.23635,0.18148
2854.30776,0.18658
2852.37917,0.18861
2850.45059,0.18582
2848.52200,0.17720
2846.59341,0.16488
2844.66483,0.15252
2842.73624,0.14185
2840.80766,0.13314
2838.87907,0.12616
2836.95048,0.12053
2835.02190,0.11601
2833.09331,0.11241
2831.16472,0.10942
2829.23614,0.10673
2827.30755,0.10437
2825.37896,0.10227
2823.45038,0.10032
2821.52179,0.09864
2819.59321,0.09718
2817.66462,0.09581
2815.73603,0.09453
2813.80745,0.09331
2811.87886,0.09213
2809.95027,0.09106
2808.02169,0.09009
2806.09310,0.08913
2804.16451,0.08806
2802.23593,0.08708
2800.30734,0.08630
2798.37876,0.08550
2796.45017,0.08471
2794.52158,0.08395
2792.59300,0.08313
2790.66441,0.08236
2788.73582,0.08179
2786.80724,0.08122
2784.87865,0.08051
2782.95007,0.07979
2781.02148,0.07913
2779.09289,0.07855
2777.16431,0.07801
2775.23572,0.07751
2773.30713,0.07698
2771.37855,0.07643
2769.44996,0.07598
2767.52137,0.07553
2765.59279,0.07501
2763.66420,0.07456
2761.73562,0.07422
2759.80703,0.07383
2757.87844,0.07335
2755.94986,0.07298
2754.02127,0.07257
2752.09268,0.07211
2750.16410,0.07188
2748.23551,0.07164
2746.30693,0.07116
2744.37834,0.07066
2742.44975,0.07035
2740.52117,0.07011
2738.59258,0.06987
2736.66399,0.06962
2734.73541,0.06921
2732.80682,0.06878
2730.87823,0.06842
2728.94965,0.06805
2727.02106,0.06772
2725.09248,0.06728
2723.16389,0.06676
2721.23530,0.06633
2719.30672,0.06590
2717.37813,0.06542
2715.44954,0.06490
2713.52096,0.06448
2711.59237,0.06408
2709.66379,0.06361
2707.73520,0.06317
2705.80661,0.06270
2703.87803,0.06230
2701.94944,0.06192
2700.02085,0.06148
2698.09227,0.06113
2696.16368,0.06084
2694.23509,0.06055
2692.30651,0.06021
2690.37792,0.05988
2688.44934,0.05963
2686.52075,0.05931
2684.59216,0.05896
2682.66358,0.05863
2680.73499,0.05823
2678.80640,0.05790
2676.87782,0.05762
2674.94923,0.05727
2673.02064,0.05688
2671.09206,0.05656
2669.16347,0.05624
2667.23489,0.05583
2665.30630,0.05547
2663.37771,0.05516
2661.44913,0.05478
2659.52054,0.05441
2657.59195,0.05405
2655.66337,0.05368
2653.73478,0.05344
2651.80620,0.05311
2649.87761,0.05266
2647.94902,0.05232
2646.02044,0.05205
2644.09185,0.05186
2642.16326,0.05167
2640.23468,0.05126
2638.30609,0.05081
2636.37750,0.05047
2634.44892,0.05012
2632.52033,0.04975
2630.59175,0.04949
2628.66316,0.04930
2626.73457,0.04897
2624.80599,0.04855
2622.87740,0.04819
2620.94881,0.04786
2619.02023,0.04758
2617.09164,0.04734
2615.16306,0.04698
2613.23447,0.04657
2611.30588,0.04627
2609.37730,0.04601
2607.44871,0.04572
2605.52012,0.04536
2603.59154,0.04496
2601.66295,0.04464
2599.73436,0.04438
2597.80578,0.04407
2595.87719,0.04376
2593.94861,0.04341
2592.02002,0.04301
2590.09143,0.04269
2588.16285,0.04243
2586.23426,0.04217
2584.30567,0.04187
2582.37709,0.04152
2580.44850,0.04127
2578.51991,0.04101
2576.59133,0.04073
2574.66274,0.04052
2572.73416,0.04022
2570.80557,0.03980
2568.87698,0.03956
2566.94840,0.03940
2565.01981,0.03912
2563.09122,0.03884
2561.16264,0.03857
2559.23405,0.03829
2557.30547,0.03802
2555.37688,0.03779
2553.44829,0.03762
2551.51971,0.03742
2549.59112,0.03715
2547.66253,0.03683
2545.73395,0.03662
2543.80536,0.03642
2541.87677,0.03608
2539.94819,0.03585
2538.01960,0.03572
2536.09102,0.03554
2534.16243,0.03531
2532.23384,0.03509
2530.30526,0.03488
2528.37667,0.03450
2526.44808,0.03414
2524.51950,0.03395
2522.59091,0.03382
2520.66233,0.03362
2518.73374,0.03337
2516.80515,0.03311
2514.87657,0.03286
2512.94798,0.03258
2511.01939,0.03224
2509.09081,0.03200
2507.16222,0.03174
2505.23363,0.03135
2503.30505,0.03099
2501.37646,0.03077
2499.44788,0.03060
2497.51929,0.03027
2495.59070,0.02995
2493.66212,0.02971
2491.73353,0.02935
2489.80494,0.02904
2487.87636,0.02873
2485.94777,0.02843
2484.01919,0.02823
2482.09060,0.02793
2480.16201,0.02762
2478.23343,0.02730
2476.30484,0.02694
2474.37625,0.02658
2472.44767,0.02625
2470.51908,0.02595
2468.59049,0.02564
2466.66191,0.02532
2464.73332,0.02507
2462.80474,0.02478
2460.87615,0.02441
2458.94756,0.02411
2457.01898,0.02379
2455.09039,0.02344
2453.16180,0.02316
2451.23322,0.02284
2449.30463,0.02249
2447.37604,0.02219
2445.44746,0.02196
2443.51887,0.02165
2441.59029,0.02127
2439.66170,0.02097
2437.73311,0.02068
2435.80453,0.02040
2433.87594,0.02012
2431.94735,0.01988
2430.01877,0.01960
2428.09018,0.01922
2426.16160,0.01893
2424.23301,0.01870
2422.30442,0.01846
2420.37584,0.01815
2418.44725,0.01783
2416.51866,0.01760
2414.59008,0.01728
2412.66149,0.01702
2410.73290,0.01676
2408.80432,0.01644
2406.87573,0.01623
2404.94715,0.01601
2403.01856,0.01579
2401.08997,0.01549
2399.16139,0.01521
2397.23280,0.01501
2395.30421,0.01472
2393.37563,0.01441
2391.44704,0.01412
2389.51846,0.01393
2387.58987,0.01368
2385.66128,0.01347
2383.73270,0.01332
2381.80411,0.01305
2379.87552,0.01285
2377.94694,0.01263
2376.01835,0.01240
2374.08976,0.01221
2372.16118,0.01198
2370.23259,0.01170
2368.30401,0.01130
2366.37542,0.01095
2364.44683,0.01060
2362.51825,0.01021
2360.58966,0.00991
2358.66107,0.00959
2356.73249,0.00932
2354.80390,0.00911
2352.87532,0.00899
2350.94673,0.00917
2349.01814,0.00967
2347.08956,0.00993
2345.16097,0.00961
2343.23238,0.00927
2341.30380,0.00902
2339.37521,0.00887
2337.44662,0.00874
2335.51804,0.00842
2333.58945,0.00814
2331.66087,0.00792
2329.73228,0.00780
2327.80369,0.00769
2325.87511,0.00760
2323.94652,0.00755
2322.01793,0.00737
2320.08935,0.00718
2318.16076,0.00713
2316.23217,0.00719
2314.30359,0.00711
2312.37500,0.00694
2310.44642,0.00690
2308.51783,0.00682
2306.58924,0.00667
2304.66066,0.00657
2302.73207,0.00645
2300.80348,0.00630
2298.87490,0.00626
2296.94631,0.00620
2295.01773,0.00599
2293.08914,0.00583
2291.16055,0.00578
2289.23197,0.00574
2287.30338,0.00565
2285.37479,0.00551
2283.44621,0.00536
2281.51762,0.00518
2279.58903,0.00500
2277.66045,0.00489
2275.73186,0.00481
2273.80328,0.00467
2271.87469,0.00459
2269.94610,0.00453
2268.01752,0.00435
2266.08893,0.00421
2264.16034,0.00417
2262.23176,0.00409
2260.30317,0.00401
2258.37459,0.00391
2256.44600,0.00374
2254.51741,0.00358
2252.58883,0.00346
2250.66024,0.00330
2248.73165,0.00318
2246.80307,0.00309
2244.87448,0.00299
2242.94589,0.00294
2241.01731,0.00287
2239.08872,0.00272
2237.16014,0.00255
2235.23155,0.00242
2233.30296,0.00241
2231.37438,0.00238
2229.44579,0.00222
2227.51720,0.00207
2225.58862,0.00201
2223.66003,0.00189
2221.73145,0.00173
2219.80286,0.00161
2217.87427,0.00150
2215.94569,0.00142
2214.01710,0.00135
2212.08851,0.00119
2210.15993,0.00105
2208.23134,0.00099
2206.30275,0.00101
2204.37417,0.00098
2202.44558,0.00087
2200.51700,0.00083
2198.58841,0.00078
2196.65982,0.00072
2194.73124,0.00065
2192.80265,0.00056
2190.87406,0.00048
2188.94548,0.00040
2187.01689,0.00042
2185.08830,0.00049
2183.15972,0.00052
2181.23113,0.00048
2179.30255,0.00040
2177.37396,0.00037
2175.44537,0.00036
2173.51679,0.00036
2171.58820,0.00020
2169.65961,0.00000
2167.73103,0.00013
2165.80244,0.00033
2163.87386,0.00035
2161.94527,0.00039
2160.01668,0.00039
2158.08810,0.00030
2156.15951,0.00019
2154.23092,0.00014
2152.30234,0.00019
2150.37375,0.00030
2148.44516,0.00033
2146.51658,0.00031
2144.58799,0.00037
2142.65941,0.00040
2140.73082,0.00038
2138.80223,0.00037
2136.87365,0.00032
2134.94506,0.00024
2133.01647,0.00024
2131.08789,0.00025
2129.15930,0.00018
2127.23072,0.00014
2125.30213,0.00019
2123.37354,0.00020
2121.44496,0.00009
2119.51637,0.00012
2117.58778,0.00023
2115.65920,0.00015
2113.73061,0.00006
2111.80202,0.00009
2109.87344,0.00012
2107.94485,0.00011
2106.01627,0.00007
2104.08768,-0.00000
2102.15909,0.00003
2100.23051,0.00016
2098.30192,0.00014
2096.37333,0.00009
2094.44475,0.00011
2092.51616,-0.00001
2090.58758,-0.00013
2088.65899,-0.00010
2086.73040,-0.00003
2084.80182,0.00004
2082.87323,0.00007
2080.94464,0.00000
2079.01606,-0.00003
2077.08747,0.00007
2075.15888,0.00014
2073.23030,0.00009
2071.30171,-0.00002
2069.37313,-0.00014
2067.44454,-0.00020
2065.51595,-0.00018
2063.58737,-0.00012
2061.65878,-0.00008
2059.73019,-0.00011
2057.80161,-0.00008
2055.87302,-0.00000
2053.94443,0.00000
2052.01585,-0.00003
2050.08726,0.00002
2048.15868,0.00016
2046.23009,0.00029
2044.30150,0.00041
2042.37292,0.00059
2040.44433,0.00085
2038.51574,0.00109
2036.58716,0.00127
2034.65857,0.00145
2032.72999,0.00163
2030.80140,0.00181
2028.87281,0.00185
2026.94423,0.00183
2025.01564,0.00186
2023.08705,0.00192
2021.15847,0.00201
2019.22988,0.00210
2017.30129,0.00216
2015.37271,0.00232
2013.44412,0.00260
2011.51554,0.00283
2009.58695,0.00301
2007.65836,0.00321
2005.72978,0.00334
2003.80119,0.00334
2001.87260,0.00335
1999.94402,0.00343
1998.01543,0.00347
1996.08685,0.00352
1994.15826,0.00349
1992.22967,0.00324
1990.30109,0.00310
1988.37250,0.00310
1986.44391,0.00304
1984.51533,0.00292
1982.58674,0.00283
1980.65815,0.00278
1978.72957,0.00264
1976.80098,0.00253
1974.87240,0.00249
1972.94381,0.00239
1971.01522,0.00230
1969.08664,0.00219
1967.15805,0.00192
1965.22946,0.00154
1963.30088,0.00127
1961.37229,0.00108
1959.44371,0.00098
1957.51512,0.00089
1955.58653,0.00076
1953.65795,0.00071
1951.72936,0.00064
1949.80077,0.00059
1947.87219,0.00049
1945.94360,0.00047
1944.01501,0.00050
1942.08643,0.00028
1940.15784,0.00013
1938.22926,0.00010
1936.30067,0.00000
1934.37208,-0.00006
1932.44350,-0.00012
1930.51491,-0.00017
1928.58632,-0.00021
1926.65774,-0.00015
1924.72915,0.00000
1922.80056,-0.00005
1920.87198,0.00006
1918.94339,0.00022
1917.01481,0.00019
1915.08622,0.00052
1913.15763,0.00109
1911.22905,0.00161
1909.30046,0.00219
1907.37187,0.00267
1905.44329,0.00319
1903.51470,0.00377
1901.58612,0.00429
1899.65753,0.00484
1897.72894,0.00544
1895.80036,0.00603
1893.87177,0.00645
1891.94318,0.00705
1890.01460,0.00758
1888.08601,0.00778
1886.15742,0.00814
1884.22884,0.00844
1882.30025,0.00864
1880.37167,0.00884
1878.44308,0.00894
1876.51449,0.00910
1874.58591,0.00916
1872.65732,0.00930
1870.72873,0.00948
1868.80015,0.00915
1866.87156,0.00851
1864.94298,0.00827
1863.01439,0.00800
1861.08580,0.00733
1859.15722,0.00660
1857.22863,0.00571
1855.30004,0.00482
1853.37146,0.00390
1851.44287,0.00308
1849.51428,0.00240
1847.58570,0.00189
1845.65711,0.00171
1843.72853,0.00074
1841.79994,0.00000
1839.87135,0.00001
1837.94277,-0.00022
1836.01418,-0.00040
1834.08559,-0.00047
1832.15701,-0.00025
1830.22842,-0.00032
1828.29984,-0.00051
1826.37125,-0.00010
1824.44266,0.00002
1822.51408,0.00037
1820.58549,0.00106
1818.65690,0.00157
1816.72832,0.00210
1814.79973,0.00276
1812.87114,0.00369
1810.94256,0.00449
1809.01397,0.00541
1807.08539,0.00652
1805.15680,0.00771
1803.22821,0.00910
1801.29963,0.01046
1799.37104,0.01188
1797.44245,0.01348
1795.51387,0.01551
1793.58528,0.01752
1791.65669,0.01886
1789.72811,0.02061
1787.79952,0.02306
1785.87094,0.02524
1783.94235,0.02726
1782.01376,0.02934
1780.08518,0.03135
1778.15659,0.03348
1776.22800,0.03576
1774.29942,0.03818
1772.37083,0.03967
1770.44225,0.04091
1768.51366,0.04307
1766.58507,0.04496
1764.65649,0.04732
1762.72790,0.04965
1760.79931,0.05143
1758.87073,0.05426
1756.94214,0.05698
1755.01355,0.05977
1753.08497,0.06336
1751.15638,0.06663
1749.22780,0.06997
1747.29921,0.07411
1745.37062,0.07868
1743.44204,0.08337
1741.51345,0.08823
1739.58486,0.09259
1737.65628,0.09703
1735.72769,0.10185
1733.79911,0.10449
1731.87052,0.10670
1729.94193,0.11036
1728.01335,0.11331
1726.08476,0.11631
1724.15617,0.11936
1722.22759,0.12235
1720.29900,0.12614
1718.37041,0.12908
1716.44183,0.13095
1714.51324,0.13324
1712.58466,0.13608
1710.65607,0.13880
1708.72748,0.14127
1706.79890,0.14362
1704.87031,0.14547
1702.94172,0.14855
1701.01314,0.15138
1699.08455,0.15283
1697.15596,0.15626
1695.22738,0.15887
1693.29879,0.16134
1691.37021,0.16551
1689.44162,0.16836
1687.51303,0.17208
1685.58445,0.17574
1683.65586,0.17724
1681.72727,0.18024
1679.79869,0.18400
1677.87010,0.18789
1675.94152,0.19108
1674.01293,0.19323
1672.08434,0.19634
1670.15576,0.19896
1668.22717,0.20057
1666.29858,0.20288
1664.37000,0.20545
1662.44141,0.20668
1660.51282,0.20755
1658.58424,0.20860
1656.65565,0.20974
1654.72707,0.21091
1652.79848,0.20835
1650.86989,0.20622
1648.94131,0.20759
1647.01272,0.20728
1645.08413,0.20567
1643.15555,0.20529
1641.22696,0.20523
1639.29838,0.20511
1637.36979,0.20540
1635.44120,0.20427
1633.51262,0.20282
1631.58403,0.20302
1629.65544,0.20232
1627.72686,0.20058
1625.79827,0.19863
1623.86968,0.19646
1621.94110,0.19373
1620.01251,0.19162
1618.08393,0.19014
1616.15534,0.18668
1614.22675,0.18393
1612.29817,0.18232
1610.36958,0.18018
1608.44099,0.17825
1606.51241,0.17659
1604.58382,0.17522
1602.65524,0.17357
1600.72665,0.17178
1598.79806,0.16993
1596.86948,0.16823
1594.94089,0.16654
1593.01230,0.16457
1591.08372,0.16258
1589.15513,0.16045
1587.22654,0.15862
1585.29796,0.15659
1583.36937,0.15448
1581.44079,0.15247
1579.51220,0.15104
1577.58361,0.14984
1575.65503,0.14698
1573.72644,0.14539
1571.79785,0.14570
1569.86927,0.14496
1567.94068,0.14401
1566.01209,0.14409
1564.08351,0.14420
1562.15492,0.14509
1560.22634,0.14572
1558.29775,0.14399
1556.36916,0.14413
1554.44058,0.14526
1552.51199,0.14547
1550.58340,0.14622
1548.65482,0.14628
1546.72623,0.14648
1544.79765,0.14663
1542.86906,0.14640
1540.94047,0.14601
1539.01189,0.14368
1537.08330,0.14297
1535.15471,0.14338
1533.22613,0.14213
1531.29754,0.14077
1529.36895,0.14001
1527.44037,0.13898
1525.51178,0.13758
1523.58320,0.13691
1521.65461,0.13578
1519.72602,0.13458
1517.79744,0.13439
1515.86885,0.13311
1513.94026,0.13117
1512.01168,0.12878
1510.08309,0.12608
1508.15451,0.12354
1506.22592,0.11855
1504.29733,0.11370
1502.36875,0.11107
1500.44016,0.10797
1498.51157,0.10447
1496.58299,0.10035
1494.65440,0.09625
1492.72581,0.09385
1490.79723,0.09143
1488.86864,0.08873
1486.94006,0.08691
1485.01147,0.08581
1483.08288,0.08555
1481.15430,0.08586
1479.22571,0.08701
1477.29712,0.08919
1475.36854,0.09243
1473.43995,0.09703
1471.51137,0.10257
1469.58278,0.10896
1467.65419,0.11469
1465.72561,0.11763
1463.79702,0.11864
1461.86843,0.11950
1459.93985,0.12095
1458.01126,0.12185
1456.08267,0.12122
1454.15409,0.12130
1452.22550,0.12177
1450.29692,0.12156
1448.36833,0.12122
1446.43974,0.12066
1444.51116,0.12037
1442.58257,0.12011
1440.65398,0.11989
1438.72540,0.12013
1436.79681,0.11962
1434.86822,0.11899
1432.93964,0.11936
1431.01105,0.11958
1429.08247,0.11929
1427.15388,0.11938
1425.22529,0.11974
1423.29671,0.12014
1421.36812,0.12101
1419.43953,0.12106
1417.51095,0.12043
1415.58236,0.12078
1413.65378,0.12093
1411.72519,0.12063
1409.79660,0.12033
1407.86802,0.11999
1405.93943,0.11965
1404.01084,0.11885
1402.08226,0.11820
1400.15367,0.11737
1398.22508,0.11620
1396.29650,0.11532
1394.36791,0.11418
1392.43933,0.11338
1390.51074,0.11335
1388.58215,0.11317
1386.65357,0.11228
1384.72498,0.11160
1382.79639,0.11209
1380.86781,0.11319
1378.93922,0.11386
1377.01064,0.11366
1375.08205,0.11285
1373.15346,0.11163
1371.22488,0.11036
1369.29629,0.10911
1367.36770,0.10772
1365.43912,0.10652
1363.51053,0.10521
1361.58194,0.10362
1359.65336,0.10226
1357.72477,0.10125
1355.79619,0.10028
1353.86760,0.09934
1351.93901,0.09859
1350.01043,0.09785
1348.08184,0.09721
1346.15325,0.09653
1344.22467,0.09584
1342.29608,0.09545
1340.36750,0.09503
1338.43891,0.09436
1336.51032,0.09363
1334.58174,0.09306
1332.65315,0.09266
1330.72456,0.09229
1328.79598,0.09198
1326.86739,0.09169
1324.93880,0.09135
1323.01022,0.09100
1321.08163,0.09068
1319.15305,0.09030
1317.22446,0.08996
1315.29587,0.08974
1313.36729,0.08949
1311.43870,0.08917
1309.51011,0.08886
1307.58153,0.08872
1305.65294,0.08859
1303.72435,0.08838
1301.79577,0.08822
1299.86718,0.08811
1297.93860,0.08825
1296.01001,0.08854
1294.08142,0.08884
1292.15284,0.08936
1290.22425,0.09031
1288.29566,0.09161
1286.36708,0.09299
1284.43849,0.09456
1282.50991,0.09627
1280.58132,0.09793
1278.65273,0.09963
1276.72415,0.10146
1274.79556,0.10340
1272.86697,0.10535
1270.93839,0.10742
1269.00980,0.10967
1267.08121,0.11208
1265.15263,0.11455
1263.22404,0.11717
1261.29546,0.12029
1259.36687,0.12386
1257.43828,0.12803
1255.50970,0.13296
1253.58111,0.13829
1251.65252,0.14394
1249.72394,0.14978
1247.79535,0.15546
1245.86677,0.16105
1243.93818,0.16650
1242.00959,0.17142
1240.08101,0.17587
1238.15242,0.18012
1236.22383,0.18411
1234.29525,0.18781
1232.36666,0.19125
1230.43807,0.19435
1228.50949,0.19698
1226.58090,0.19944
1224.65232,0.20203
1222.72373,0.20462
1220.79514,0.20705
1218.86656,0.20948
1216.93797,0.21197
1215.00938,0.21422
1213.08080,0.21642
1211.15221,0.21886
1209.22363,0.22139
1207.29504,0.22385
1205.36645,0.22603
1203.43787,0.22804
1201.50928,0.22988
1199.58069,0.23175
1197.65211,0.23371
1195.72352,0.23550
1193.79493,0.23721
1191.86635,0.23882
1189.93776,0.24061
1188.00918,0.24243
1186.08059,0.24404
1184.15200,0.24598
1182.22342,0.24814
1180.29483,0.25025
1178.36624,0.25256
1176.43766,0.25520
1174.50907,0.25803
1172.58048,0.26097
1170.65190,0.26396
1168.72331,0.26705
1166.79473,0.27039
1164.86614,0.27362
1162.93755,0.27630
1161.00897,0.27824
1159.08038,0.27957
1157.15179,0.28074
1155.22321,0.28184
1153.29462,0.28315
1151.36604,0.28493
1149.43745,0.28699
1147.50886,0.28909
1145.58028,0.29149
1143.65169,0.29446
1141.72310,0.29762
1139.79452,0.30105
1137.86593,0.30487
1135.93734,0.30870
1134.00876,0.31279
1132.08017,0.31719
1130.15159,0.32152
1128.22300,0.32647
1126.29441,0.33243
1124.36583,0.33821
1122.43724,0.34377
1120.50865,0.34979
1118.58007,0.35611
1116.65148,0.36265
1114.72290,0.36918
1112.79431,0.37605
1110.86572,0.38301
1108.93714,0.38952
1107.00855,0.39547
1105.07996,0.40028
1103.15138,0.40458
1101.22279,0.40818
1099.29420,0.41060
1097.36562,0.41237
1095.43703,0.41307
1093.50845,0.41308
1091.57986,0.41309
1089.65127,0.41293
1087.72269,0.41239
1085.79410,0.41126
1083.86551,0.40974
1081.93693,0.40796
1080.00834,0.40600
1078.07976,0.40424
1076.15117,0.40264
1074.22258,0.40100
1072.29400,0.39930
1070.36541,0.39766
1068.43682,0.39675
1066.50824,0.39607
1064.57965,0.39468
1062.65106,0.39309
1060.72248,0.39163
1058.79389,0.38970
1056.86531,0.38692
1054.93672,0.38407
1053.00813,0.38199
1051.07955,0.38034
1049.15096,0.37899
1047.22237,0.37859
1045.29379,0.37887
1043.36520,0.37981
1041.43661,0.38161
1039.50803,0.38336
1037.57944,0.38506
1035.65086,0.38598
1033.72227,0.38556
1031.79368,0.38514
1029.86510,0.38404
1027.93651,0.38139
1026.00792,0.37793
1024.07934,0.37438
1022.15075,0.37089
1020.22217,0.36709
1018.29358,0.36347
1016.36499,0.36015
1014.43641,0.35664
1012.50782,0.35299
1010.57923,0.34932
1008.65065,0.34547
1006.72206,0.34119
1004.79347,0.33656
1002.86489,0.33171
1000.93630,0.32635
999.00772,0.32036
997.07913,0.31450
995.15054,0.30872
993.22196,0.30238
991.29337,0.29579
989.36478,0.28926
987.43620,0.28235
985.50761,0.27458
983.57903,0.26618
981.65044,0.25724
979.72185,0.24772
977.79327,0.23785
975.86468,0.22766
973.93609,0.21732
972.00751,0.20701
970.07892,0.19703
968.15033,0.18741
966.22175,0.17834
964.29316,0.17029
962.36458,0.16296
960.43599,0.15598
958.50740,0.14964
956.57882,0.14436
954.65023,0.13981
952.72164,0.13547
950.79306,0.13176
948.86447,0.12891
946.93589,0.12660
945.00730,0.12441
943.07871,0.12240
941.15013,0.12077
939.22154,0.11925
937.29295,0.11769
935.36437,0.11617
933.43578,0.11462
931.50719,0.11310
929.57861,0.11217
927.65002,0.11144
925.72144,0.11034
923.79285,0.10954
921.86426,0.10896
919.93568,0.10839
918.00709,0.10827
916.07850,0.10804
914.14992,0.10712
912.22133,0.10543
910.29274,0.10283
908.36416,0.09877
906.43557,0.09332
904.50699,0.08760
902.57840,0.08167
900.64981,0.07559
898.72123,0.06988
896.79264,0.06443
894.86405,0.05969
892.93547,0.05556
891.00688,0.05150
889.07830,0.04780
887.14971,0.04440
885.22112,0.04117
883.29254,0.03818
881.36395,0.03539
879.43536,0.03229
877.50678,0.02887
875.57819,0.02596
873.64960,0.02342
871.72102,0.02082
869.79243,0.01793
867.86385,0.01515
865.93526,0.01270
864.00667,0.01010
862.07809,0.00806
860.14950,0.00690
858.22091,0.00594
856.29233,0.00490
854.36374,0.00407
852.43516,0.00385
850.50657,0.00402
848.57798,0.00479
846.64940,0.00638
844.72081,0.00897
842.79222,0.01181
840.86364,0.01447
838.93505,0.01775
837.00646,0.02126
835.07788,0.02491
833.14929,0.02807
831.22071,0.03061
829.29212,0.03304
827.36353,0.03438
825.43495,0.03500
823.50636,0.03585
821.57777,0.03702
819.64919,0.03781
817.72060,0.03878
815.79201,0.04088
813.86343,0.04313
811.93484,0.04649
810.00626,0.05127
808.07767,0.05733
806.14908,0.06504
804.22050,0.07219
802.29191,0.07771
800.36332,0.08068
798.43474,0.08000
796.50615,0.07590
794.57757,0.06997
792.64898,0.06472
790.72039,0.06039
788.79181,0.05767
786.86322,0.05687
784.93463,0.05723
783.00605,0.05907
781.07746,0.06022
779.14887,0.05829
777.22029,0.05366
775.29170,0.04730
773.36312,0.04098
771.43453,0.03628
769.50594,0.03310
767.57736,0.03105
765.64877,0.02993
763.72018,0.02960
761.79160,0.03017
759.86301,0.03064
757.93443,0.03033
756.00584,0.03006
754.07725,0.03019
752.14867,0.03014
750.22008,0.02905
748.29149,0.02782
746.36291,0.02676
744.43432,0.02453
742.50573,0.02181
740.57715,0.01937
738.64856,0.01705
736.71998,0.01462
734.79139,0.01261
732.86280,0.01190
730.93422,0.01140
729.00563,0.01117
727.07704,0.01177
725.14846,0.01233
723.21987,0.01286
721.29129,0.01320
719.36270,0.01263
717.43411,0.01068
715.50553,0.00858
713.57694,0.00829
711.64835,0.00929
709.71977,0.01022
707.79118,0.01089
705.86259,0.01207
703.93401,0.01401
702.00542,0.01727
700.07684,0.02217
698.14825,0.02694
696.21966,0.02991
694.29108,0.02960
692.36249,0.02650
690.43390,0.02260
688.50532,0.01941
686.57673,0.01740
684.64814,0.01553
682.71956,0.01436
680.79097,0.01374
678.86239,0.01242
676.93380,0.01148
675.00521,0.01121
673.07663,0.01057
671.14804,0.01007
669.21945,0.00998
667.29087,0.00879
665.36228,0.00769
663.43370,0.00806
661.50511,0.00880
659.57652,0.00853
657.64794,0.00744
655.71935,0.00854
653.79076,0.01073
651.86218,0.01165
649.93359,0.01275
648.00500,0.01384
646.07642,0.01397
644.14783,0.01300
642.21925,0.01239
640.29066,0.01344
638.36207,0.01559
636.43349,0.01704
634.50490,0.01671
632.57631,0.01694
630.64773,0.01738
628.71914,0.01714
626.79056,0.01738
624.86197,0.01828
622.93338,0.02015
621.00480,0.02114
619.07621,0.02130
617.14762,0.02289
615.21904,0.02429
613.29045,0.02474
611.36186,0.02664
609.43328,0.02827
607.50469,0.02843
605.57611,0.03048
603.64752,0.03318
601.71893,0.03506
599.79035,0.03666
597.86176,0.03833
595.93317,0.04097
594.00459,0.04357
592.07600,0.04814
590.14742,0.05337
588.21883,0.05489
586.29024,0.05619
584.36166,0.06095
582.43307,0.06646
580.50448,0.07021
578.57590,0.07425
576.64731,0.07925
574.71872,0.08419
572.79014,0.08788
570.86155,0.09169
568.93297,0.09741
567.00438,0.10169
565.07579,0.10691
563.14721,0.11390
561.21862,0.11984
559.29003,0.12566
557.36145,0.12987
555.43286,0.13467
553.50427,0.13993
551.57569,0.14390
549.64710,0.14859
547.71852,0.15221
545.78993,0.15660
543.86134,0.16368
541.93276,0.16998
540.00417,0.17565
538.07558,0.18116
536.14700,0.18504
534.21841,0.18983
532.28983,0.19421
530.36124,0.19426
528.43265,0.19285
526.50407,0.19182
524.57548,0.19136
522.64689,0.19095
520.71831,0.18857
518.78972,0.18377
516.86113,0.17733
514.93255,0.17060
513.00396,0.16367
511.07538,0.15945
509.14679,0.15832
507.21820,0.15646
505.28962,0.15513
503.36103,0.15559
501.43244,0.15846
499.50386,0.16257
497.57527,0.16645
495.64669,0.17228
493.71810,0.18086
491.78951,0.19310
489.86093,0.20710
487.93234,0.22017
486.00375,0.23258
484.07517,0.24641
482.14658,0.26251
480.21799,0.27550
478.28941,0.28316
476.36082,0.28600
474.43224,0.28883
472.50365,0.29324
470.57506,0.29254
468.64648,0.28686
466.71789,0.27564
464.78930,0.26064
462.86072,0.24693
460.93213,0.23663
459.00355,0.22360
457.07496,0.20572
455.14637,0.19268
453.21779,0.18208
451.28920,0.16713
449.36061,0.15492
447.43203,0.14934
445.50344,0.14115
443.57485,0.13458
441.64627,0.13067
439.71768,0.12361
437.78910,0.11977
435.86051,0.11619
433.93192,0.11549
432.00334,0.11978
430.07475,0.12086
428.14616,0.11401
426.21758,0.10532
424.28899,0.10340
422.36040,0.09431
420.43182,0.07934
418.50323,0.06946
416.57465,0.06678
414.64606,0.06216
412.71747,0.04668
410.78889,0.03475
408.86030,0.02926
406.93171,0.02346
405.00313,0.00898
403.07454,0.00000
401.14596,-0.00083
399.21737,0.00000
