3747.24323,0.00000
3745.31464,0.00262
3743.38605,-0.00001
3741.45747,0.00071
3739.52888,0.00404
3737.60030,0.00509
3735.67171,0.00429
3733.74312,0.00350
3731.81454,0.00414
3729.88595,0.00510
3727.95736,0.00712
3726.02878,0.00818
3724.10019,0.00849
3722.17161,0.01020
3720.24302,0.01141
3718.31443,0.01382
3716.38585,0.01658
3714.45726,0.02000
3712.52867,0.02296
3710.60009,0.02375
3708.67150,0.02698
3706.74291,0.03084
3704.81433,0.03502
3702.88574,0.03833
3700.95716,0.03993
3699.02857,0.04230
3697.09998,0.04373
3695.17140,0.04469
3693.24281,0.04511
3691.31422,0.04609
3689.38564,0.04636
3687.45705,0.04577
3685.52846,0.04836
3683.59988,0.05185
3681.67129,0.05555
3679.74271,0.05911
3677.81412,0.06379
3675.88553,0.06687
3673.95695,0.06877
3672.02836,0.07520
3670.09977,0.07968
3668.17119,0.08291
3666.24260,0.08856
3664.31402,0.09380
3662.38543,0.09878
3660.45684,0.10349
3658.52826,0.10840
3656.59967,0.11173
3654.67108,0.11408
3652.74250,0.11879
3650.81391,0.12254
3648.88532,0.12386
3646.95674,0.12598
3645.02815,0.12974
3643.09957,0.13342
3641.17098,0.13640
3639.24239,0.13949
3637.31381,0.14243
3635.38522,0.14523
3633.45663,0.14792
3631.52805,0.15145
3629.59946,0.15393
3627.67088,0.15331
3625.74229,0.15518
3623.81370,0.15779
3621.88512,0.15884
3619.95653,0.15866
3618.02794,0.15640
3616.09936,0.15560
3614.17077,0.15519
3612.24218,0.15368
3610.31360,0.15289
3608.38501,0.15159
3606.45643,0.15014
3604.52784,0.14986
3602.59925,0.14966
3600.67067,0.14886
3598.74208,0.14829
3596.81349,0.14798
3594.88491,0.14738
3592.95632,0.14702
3591.02774,0.14779
3589.09915,0.14818
3587.17056,0.14690
3585.24198,0.14667
3583.31339,0.14787
3581.38480,0.14872
3579.45622,0.14925
3577.52763,0.14998
3575.59904,0.15083
3573.67046,0.15158
3571.74187,0.15266
3569.81329,0.15401
3567.88470,0.15470
3565.95611,0.15464
3564.02753,0.15548
3562.09894,0.15727
3560.17035,0.15861
3558.24177,0.15960
3556.31318,0.16046
3554.38459,0.16157
3552.45601,0.16267
3550.52742,0.16337
3548.59884,0.16444
3546.67025,0.16524
3544.74166,0.16593
3542.81308,0.16710
3540.88449,0.16830
3538.95590,0.16961
3537.02732,0.17058
3535.09873,0.17127
3533.17015,0.17220
3531.24156,0.17331
3529.31297,0.17423
3527.38439,0.17508
3525.45580,0.17610
3523.52721,0.17692
3521.59863,0.17798
3519.67004,0.17928
3517.74145,0.18033
3515.81287,0.18111
3513.88428,0.18178
3511.95570,0.18270
3510.02711,0.18345
3508.09852,0.18397
3506.16994,0.18500
3504.24135,0.18613
3502.31276,0.18679
3500.38418,0.18763
3498.45559,0.18875
3496.52701,0.18962
3494.59842,0.19021
3492.66983,0.19083
3490.74125,0.19165
3488.81266,0.19240
3486.88407,0.19329
3484.95549,0.19413
3483.02690,0.19477
3481.09831,0.19551
3479.16973,0.19626
3477.24114,0.19708
3475.31256,0.19736
3473.38397,0.19777
3471.45538,0.19897
3469.52680,0.19981
3467.59821,0.20044
3465.66962,0.20107
3463.74104,0.20153
3461.81245,0.20193
3459.88386,0.20250
3457.95528,0.20316
3456.02669,0.20364
3454.09811,0.20434
3452.16952,0.20511
3450.24093,0.20576
3448.31235,0.20611
3446.38376,0.20611
3444.45517,0.20656
3442.52659,0.20740
3440.59800,0.20808
3438.66942,0.20874
3436.74083,0.20932
3434.81224,0.20947
3432.88366,0.20975
3430.95507,0.21017
3429.02648,0.21052
3427.09790,0.21102
3425.16931,0.21147
3423.24072,0.21195
3421.31214,0.21215
3419.38355,0.21232
3417.45497,0.21289
3415.52638,0.21348
3413.59779,0.21389
3411.66921,0.21419
3409.74062,0.21461
3407.81203,0.21503
3405.88345,0.21542
3403.95486,0.21565
3402.02628,0.21581
3400.09769,0.21613
3398.16910,0.21637
3396.24052,0.21672
3394.31193,0.21695
3392.38334,0.21687
3390.45476,0.21692
3388.52617,0.21724
3386.59758,0.21746
3384.66900,0.21756
3382.74041,0.21781
3380.81183,0.21798
3378.88324,0.21814
3376.95465,0.21849
3375.02607,0.21887
3373.09748,0.21911
3371.16889,0.21924
3369.24031,0.21956
3367.31172,0.22014
3365.38314,0.22040
3363.45455,0.22020
3361.52596,0.22053
3359.59738,0.22104
3357.66879,0.22106
3355.74020,0.22113
3353.81162,0.22107
3351.88303,0.22126
3349.95444,0.22168
3348.02586,0.22175
3346.09727,0.22161
3344.16869,0.22152
3342.24010,0.22184
3340.31151,0.22221
3338.38293,0.22253
3336.45434,0.22274
3334.52575,0.22286
3332.59717,0.22304
3330.66858,0.22282
3328.73999,0.22285
3326.81141,0.22301
3324.88282,0.22281
3322.95424,0.22291
3321.02565,0.22308
3319.09706,0.22305
3317.16848,0.22288
3315.23989,0.22266
3313.31130,0.22261
3311.38272,0.22270
3309.45413,0.22275
3307.52555,0.22267
3305.59696,0.22259
3303.66837,0.22232
3301.73979,0.22215
3299.81120,0.22235
3297.88261,0.22232
3295.95403,0.22207
3294.02544,0.22175
3292.09685,0.22144
3290.16827,0.22132
3288.23968,0.22124
3286.31110,0.22088
3284.38251,0.22026
3282.45392,0.21981
3280.52534,0.21956
3278.59675,0.21933
3276.66816,0.21871
3274.73958,0.21782
3272.81099,0.21720
3270.88241,0.21638
3268.95382,0.21553
3267.02523,0.21492
3265.09665,0.21418
3263.16806,0.21350
3261.23947,0.21277
3259.31089,0.21184
3257.38230,0.21081
3255.45371,0.20982
3253.52513,0.20917
3251.59654,0.20867
3249.66796,0.20810
3247.73937,0.20755
3245.81078,0.20676
3243.88220,0.20577
3241.95361,0.20493
3240.02502,0.20418
3238.09644,0.20347
3236.16785,0.20280
3234.23927,0.20211
3232.31068,0.20144
3230.38209,0.20076
3228.45351,0.19995
3226.52492,0.19914
3224.59633,0.19855
3222.66775,0.19795
3220.73916,0.19719
3218.81057,0.19646
3216.88199,0.19585
3214.95340,0.19527
3213.02482,0.19462
3211.09623,0.19383
3209.16764,0.19297
3207.23906,0.19239
3205.31047,0.19191
3203.38188,0.19120
3201.45330,0.19063
3199.52471,0.18985
3197.59612,0.18890
3195.66754,0.18837
3193.73895,0.18772
3191.81037,0.18667
3189.88178,0.18592
3187.95319,0.18558
3186.02461,0.18481
3184.09602,0.18363
3182.16743,0.18285
3180.23885,0.18231
3178.31026,0.18177
3176.38168,0.18108
3174.45309,0.18018
3172.52450,0.17945
3170.59592,0.17873
3168.66733,0.17793
3166.73874,0.17717
3164.81016,0.17621
3162.88157,0.17541
3160.95298,0.17490
3159.02440,0.17420
3157.09581,0.17340
3155.16723,0.17278
3153.23864,0.17215
3151.31005,0.17137
3149.38147,0.17089
3147.45288,0.17053
3145.52429,0.16984
3143.59571,0.16911
3141.66712,0.16839
3139.73854,0.16773
3137.80995,0.16722
3135.88136,0.16674
3133.95278,0.16621
3132.02419,0.16547
3130.09560,0.16481
3128.16702,0.16436
3126.23843,0.16386
3124.30984,0.16348
3122.38126,0.16321
3120.45267,0.16267
3118.52409,0.16216
3116.59550,0.16183
3114.66691,0.16127
3112.73833,0.16071
3110.80974,0.16041
3108.88115,0.16007
3106.95257,0.15964
3105.02398,0.15955
3103.09540,0.15946
3101.16681,0.15893
3099.23822,0.15834
3097.30964,0.15789
3095.38105,0.15767
3093.45246,0.15751
3091.52388,0.15726
3089.59529,0.15692
3087.66670,0.15632
3085.73812,0.15597
3083.80953,0.15597
3081.88095,0.15573
3079.95236,0.15518
3078.02377,0.15461
3076.09519,0.15407
3074.16660,0.15356
3072.23801,0.15321
3070.30943,0.15276
3068.38084,0.15229
3066.45225,0.15194
3064.52367,0.15131
3062.59508,0.15053
3060.66650,0.14988
3058.73791,0.14931
3056.80932,0.14865
3054.88074,0.14801
3052.95215,0.14745
3051.02356,0.14676
3049.09498,0.14607
3047.16639,0.14546
3045.23781,0.14486
3043.30922,0.14432
3041.38063,0.14376
3039.45205,0.14318
3037.52346,0.14267
3035.59487,0.14226
3033.66629,0.14197
3031.73770,0.14166
3029.80911,0.14127
3027.88053,0.14092
3025.95194,0.14045
3024.02336,0.14000
3022.09477,0.13975
3020.16618,0.13948
3018.23760,0.13917
3016.30901,0.13884
3014.38042,0.13885
3012.45184,0.13926
3010.52325,0.13949
3008.59467,0.13941
3006.66608,0.13947
3004.73749,0.13982
3002.80891,0.14024
3000.88032,0.14086
2998.95173,0.14175
2997.02315,0.14256
2995.09456,0.14325
2993.16597,0.14415
2991.23739,0.14530
2989.30880,0.14637
2987.38022,0.14763
2985.45163,0.14925
2983.52304,0.15085
2981.59446,0.15248
2979.66587,0.15425
2977.73728,0.15602
2975.80870,0.15784
2973.88011,0.15981
2971.95153,0.16172
2970.02294,0.16353
2968.09435,0.16535
2966.16577,0.16732
2964.23718,0.16939
2962.30859,0.17131
2960.38001,0.17323
2958.45142,0.17523
2956.52283,0.17718
2954.59425,0.17913
2952.66566,0.18088
2950.73708,0.18264
2948.80849,0.18462
2946.87990,0.18689
2944.95132,0.18970
2943.02273,0.19280
2941.09414,0.19610
2939.16556,0.19971
2937.23697,0.20352
2935.30838,0.20733
2933.37980,0.21086
2931.45121,0.21418
2929.52263,0.21740
2927.59404,0.22016
2925.66545,0.22234
2923.73687,0.22377
2921.80828,0.22450
2919.87969,0.22458
2917.95111,0.22259
2916.02252,0.21720
2914.09394,0.20957
2912.16535,0.20190
2910.23676,0.19545
2908.30818,0.19045
2906.37959,0.18630
2904.45100,0.18269
2902.52242,0.17976
2900.59383,0.17712
2898.66524,0.17471
2896.73666,0.17242
2894.80807,0.16988
2892.87949,0.16742
2890.95090,0.16515
2889.02231,0.16306
2887.09373,0.16112
2885.16514,0.15933
2883.23655,0.15796
2881.30797,0.15668
2879.37938,0.15570
2877.45080,0.15535
2875.52221,0.15534
2873.59362,0.15555
2871.66504,0.15566
2869.73645,0.15564
2867.80786,0.15579
2865.87928,0.15640
2863.95069,0.15784
2862.02210,0.16042
2860.09352,0.16419
2858.16493,0.16888
2856.23635,0.17398
2854.30776,0.17821
2852.37917,0.18005
2850.45059,0.17837
2848.52200,0.17236
2846.59341,0.16314
2844.66483,0.15336
2842.73624,0.14470
2840.80766,0.13733
2838.87907,0.13126
2836.95048,0.12647
2835.02190,0.12236
2833.09331,0.11874
2831.16472,0.11575
2829.23614,0.11315
2827.30755,0.11068
2825.37896,0.10850
2823.45038,0.10672
2821.52179,0.10502
2819.59321,0.10344
2817.66462,0.10200
2815.73603,0.10066
2813.80745,0.09950
2811.87886,0.09841
2809.95027,0.09735
2808.02169,0.09622
2806.09310,0.09509
2804.16451,0.09401
2802.23593,0.09303
2800.30734,0.09214
2798.37876,0.09129
2796.45017,0.09051
2794.52158,0.08978
2792.59300,0.08920
2790.66441,0.08852
2788.73582,0.08766
2786.80724,0.08696
2784.87865,0.08618
2782.95007,0.08541
2781.02148,0.08480
2779.09289,0.08411
2777.16431,0.08347
2775.23572,0.08293
2773.30713,0.08240
2771.37855,0.08181
2769.44996,0.08131
2767.52137,0.08088
2765.59279,0.08038
2763.66420,0.07980
2761.73562,0.07915
2759.80703,0.07868
2757.87844,0.07832
2755.94986,0.07806
2754.02127,0.07774
2752.09268,0.07715
2750.16410,0.07665
2748.23551,0.07638
2746.30693,0.07614
2744.37834,0.07579
2742.44975,0.07532
2740.52117,0.07500
2738.59258,0.07475
2736.66399,0.07430
2734.73541,0.07390
2732.80682,0.07365
2730.87823,0.07335
2728.94965,0.07290
2727.02106,0.07236
2725.09248,0.07184
2723.16389,0.07142
2721.23530,0.07121
2719.30672,0.07094
2717.37813,0.07029
2715.44954,0.06962
2713.52096,0.06920
2711.59237,0.06878
2709.66379,0.06823
2707.73520,0.06777
2705.80661,0.06742
2703.87803,0.06703
2701.94944,0.06664
2700.02085,0.06634
2698.09227,0.06612
2696.16368,0.06574
2694.23509,0.06536
2692.30651,0.06509
2690.37792,0.06459
2688.44934,0.06422
2686.52075,0.06407
2684.59216,0.06375
2682.66358,0.06342
2680.73499,0.06316
2678.80640,0.06286
2676.87782,0.06254
2674.94923,0.06208
2673.02064,0.06152
2671.09206,0.06122
2669.16347,0.06097
2667.23489,0.06052
2665.30630,0.06027
2663.37771,0.06006
2661.44913,0.05965
2659.52054,0.05922
2657.59195,0.05885
2655.66337,0.05850
2653.73478,0.05813
2651.80620,0.05792
2649.87761,0.05771
2647.94902,0.05727
2646.02044,0.05685
2644.09185,0.05651
2642.16326,0.05622
2640.23468,0.05602
2638.30609,0.05576
2636.37750,0.05537
2634.44892,0.05500
2632.52033,0.05468
2630.59175,0.05430
2628.66316,0.05393
2626.73457,0.05362
2624.80599,0.05337
2622.87740,0.05305
2620.94881,0.05264
2619.02023,0.05228
2617.09164,0.05200
2615.16306,0.05181
2613.23447,0.05143
2611.30588,0.05099
2609.37730,0.05080
2607.44871,0.05057
2605.52012,0.05018
2603.59154,0.04971
2601.66295,0.04926
2599.73436,0.04901
2597.80578,0.04862
2595.87719,0.04813
2593.94861,0.04794
2592.02002,0.04771
2590.09143,0.04727
2588.16285,0.04690
2586.23426,0.04655
2584.30567,0.04625
2582.37709,0.04597
2580.44850,0.04570
2578.51991,0.04538
2576.59133,0.04493
2574.66274,0.04461
2572.73416,0.04443
2570.80557,0.04410
2568.87698,0.04369
2566.94840,0.04331
2565.01981,0.04301
2563.09122,0.04276
2561.16264,0.04242
2559.23405,0.04212
2557.30547,0.04183
2555.37688,0.04145
2553.44829,0.04114
2551.51971,0.04081
2549.59112,0.04053
2547.66253,0.04031
2545.73395,0.03995
2543.80536,0.03960
2541.87677,0.03929
2539.94819,0.03897
2538.01960,0.03880
2536.09102,0.03865
2534.16243,0.03833
2532.23384,0.03801
2530.30526,0.03771
2528.37667,0.03738
2526.44808,0.03701
2524.51950,0.03665
2522.59091,0.03636
2520.66233,0.03612
2518.73374,0.03596
2516.80515,0.03568
2514.87657,0.03531
2512.94798,0.03494
2511.01939,0.03450
2509.09081,0.03418
2507.16222,0.03389
2505.23363,0.03362
2503.30505,0.03330
2501.37646,0.03281
2499.44788,0.03257
2497.51929,0.03240
2495.59070,0.03213
2493.66212,0.03183
2491.73353,0.03147
2489.80494,0.03116
2487.87636,0.03073
2485.94777,0.03031
2484.01919,0.02999
2482.09060,0.02968
2480.16201,0.02942
2478.23343,0.02903
2476.30484,0.02865
2474.37625,0.02839
2472.44767,0.02806
2470.51908,0.02769
2468.59049,0.02735
2466.66191,0.02699
2464.73332,0.02664
2462.80474,0.02640
2460.87615,0.02606
2458.94756,0.02565
2457.01898,0.02535
2455.09039,0.02504
2453.16180,0.02481
2451.23322,0.02459
2449.30463,0.02416
2447.37604,0.02382
2445.44746,0.02361
2443.51887,0.02331
2441.59029,0.02299
2439.66170,0.02268
2437.73311,0.02237
2435.80453,0.02204
2433.87594,0.02170
2431.94735,0.02149
2430.01877,0.02126
2428.09018,0.02084
2426.16160,0.02049
2424.23301,0.02020
2422.30442,0.01991
2420.37584,0.01969
2418.44725,0.01948
2416.51866,0.01921
2414.59008,0.01894
2412.66149,0.01866
2410.73290,0.01826
2408.80432,0.01791
2406.87573,0.01771
2404.94715,0.01755
2403.01856,0.01734
2401.08997,0.01706
2399.16139,0.01681
2397.23280,0.01652
2395.30421,0.01623
2393.37563,0.01604
2391.44704,0.01581
2389.51846,0.01549
2387.58987,0.01521
2385.66128,0.01496
2383.73270,0.01477
2381.80411,0.01460
2379.87552,0.01428
2377.94694,0.01385
2376.01835,0.01350
2374.08976,0.01313
2372.16118,0.01270
2370.23259,0.01235
2368.30401,0.01186
2366.37542,0.01123
2364.44683,0.01090
2362.51825,0.01069
2360.58966,0.01043
2358.66107,0.01015
2356.73249,0.00992
2354.80390,0.00999
2352.87532,0.01021
2350.94673,0.01040
2349.01814,0.01067
2347.08956,0.01066
2345.16097,0.01031
2343.23238,0.00993
2341.30380,0.00967
2339.37521,0.00958
2337.44662,0.00935
2335.51804,0.00888
2333.58945,0.00849
2331.66087,0.00823
2329.73228,0.00796
2327.80369,0.00784
2325.87511,0.00791
2323.94652,0.00786
2322.01793,0.00775
2320.08935,0.00768
2318.16076,0.00757
2316.23217,0.00751
2314.30359,0.00736
2312.37500,0.00719
2310.44642,0.00712
2308.51783,0.00706
2306.58924,0.00707
2304.66066,0.00695
2302.73207,0.00667
2300.80348,0.00641
2298.87490,0.00621
2296.94631,0.00615
2295.01773,0.00604
2293.08914,0.00589
2291.16055,0.00576
2289.23197,0.00555
2287.30338,0.00541
2285.37479,0.00537
2283.44621,0.00515
2281.51762,0.00492
2279.58903,0.00494
2277.66045,0.00486
2275.73186,0.00469
2273.80328,0.00454
2271.87469,0.00431
2269.94610,0.00417
2268.01752,0.00406
2266.08893,0.00385
2264.16034,0.00359
2262.23176,0.00344
2260.30317,0.00341
2258.37459,0.00328
2256.44600,0.00311
2254.51741,0.00310
2252.58883,0.00315
2250.66024,0.00313
2248.73165,0.00300
2246.80307,0.00284
2244.87448,0.00273
2242.94589,0.00268
2241.01731,0.00263
2239.08872,0.00248
2237.16014,0.00237
2235.23155,0.00233
2233.30296,0.00227
2231.37438,0.00216
2229.44579,0.00195
2227.51720,0.00181
2225.58862,0.00180
2223.66003,0.00173
2221.73145,0.00158
2219.80286,0.00142
2217.87427,0.00132
2215.94569,0.00125
2214.01710,0.00118
2212.08851,0.00105
2210.15993,0.00094
2208.23134,0.00093
2206.30275,0.00079
2204.37417,0.00063
2202.44558,0.00065
2200.51700,0.00058
2198.58841,0.00050
2196.65982,0.00054
2194.73124,0.00054
2192.80265,0.00057
2190.87406,0.00055
2188.94548,0.00047
2187.01689,0.00035
2185.08830,0.00019
2183.15972,0.00018
2181.23113,0.00024
2179.30255,0.00024
2177.37396,0.00029
2175.44537,0.00034
2173.51679,0.00036
2171.58820,0.00022
2169.65961,0.00000
2167.73103,0.00010
2165.80244,0.00029
2163.87386,0.00032
2161.94527,0.00036
2160.01668,0.00036
2158.08810,0.00038
2156.15951,0.00044
2154.23092,0.00038
2152.30234,0.00033
2150.37375,0.00038
2148.44516,0.00040
2146.51658,0.00033
2144.58799,0.00040
2142.65941,0.00049
2140.73082,0.00049
2138.80223,0.00047
2136.87365,0.00039
2134.94506,0.00038
2133.01647,0.00043
2131.08789,0.00037
2129.15930,0.00024
2127.23072,0.00016
2125.30213,0.00011
2123.37354,0.00000
2121.44496,0.00006
2119.51637,0.00020
2117.58778,0.00009
2115.65920,-0.00001
2113.73061,-0.00001
2111.80202,-0.00007
2109.87344,-0.00008
2107.94485,-0.00009
2106.01627,-0.00010
2104.08768,-0.00012
2102.15909,-0.00019
2100.23051,-0.00020
2098.30192,-0.00014
2096.37333,-0.00009
2094.44475,-0.00003
2092.51616,0.00007
2090.58758,0.00011
2088.65899,0.00008
2086.73040,0.00010
2084.80182,0.00011
2082.87323,0.00002
2080.94464,0.00000
2079.01606,-0.00004
2077.08747,-0.00005
2075.15888,-0.00002
2073.23030,-0.00011
2071.30171,-0.00011
2069.37313,-0.00002
2067.44454,-0.00003
2065.51595,-0.00005
2063.58737,0.00003
2061.65878,0.00011
2059.73019,0.00006
2057.80161,0.00001
2055.87302,0.00001
2053.94443,0.00004
2052.01585,0.00015
2050.08726,0.00028
2048.15868,0.00054
2046.23009,0.00076
2044.30150,0.00082
2042.37292,0.00095
2040.44433,0.00127
2038.51574,0.00161
2036.58716,0.00181
2034.65857,0.00200
2032.72999,0.00227
2030.80140,0.00243
2028.87281,0.00251
2026.94423,0.00261
2025.01564,0.00261
2023.08705,0.00265
2021.15847,0.00279
2019.22988,0.00282
2017.30129,0.00290
2015.37271,0.00303
2013.44412,0.00330
2011.51554,0.00355
2009.58695,0.00366
2007.65836,0.00387
2005.72978,0.00410
2003.80119,0.00429
2001.87260,0.00430
1999.94402,0.00430
1998.01543,0.00441
1996.08685,0.00436
1994.15826,0.00430
1992.22967,0.00412
1990.30109,0.00390
1988.37250,0.00382
1986.44391,0.00379
1984.51533,0.00378
1982.58674,0.00362
1980.65815,0.00343
1978.72957,0.00328
1976.80098,0.00315
1974.87240,0.00308
1972.94381,0.00308
1971.01522,0.00303
1969.08664,0.00274
1967.15805,0.00233
1965.22946,0.00200
1963.30088,0.00182
1961.37229,0.00160
1959.44371,0.00141
1957.51512,0.00135
1955.58653,0.00121
1953.65795,0.00111
1951.72936,0.00102
1949.80077,0.00090
1947.87219,0.00072
1945.94360,0.00058
1944.01501,0.00051
1942.08643,0.00028
1940.15784,0.00019
1938.22926,0.00014
1936.30067,0.00000
1934.37208,-0.00000
1932.44350,0.00000
1930.51491,-0.00007
1928.58632,-0.00018
1926.65774,-0.00007
1924.72915,0.00011
1922.80056,0.00000
1920.87198,0.00003
1918.94339,0.00024
1917.01481,0.00019
1915.08622,0.00061
1913.15763,0.00141
1911.22905,0.00194
1909.30046,0.00235
1907.37187,0.00286
1905.44329,0.00362
1903.51470,0.00425
1901.58612,0.00485
1899.65753,0.00558
1897.72894,0.00632
1895.80036,0.00704
1893.87177,0.00740
1891.94318,0.00790
1890.01460,0.00831
1888.08601,0.00846
1886.15742,0.00911
1884.22884,0.00950
1882.30025,0.00976
1880.37167,0.00995
1878.44308,0.01001
1876.51449,0.01031
1874.58591,0.01041
1872.65732,0.01054
1870.72873,0.01052
1868.80015,0.00993
1866.87156,0.00934
1864.94298,0.00921
1863.01439,0.00897
1861.08580,0.00826
1859.15722,0.00761
1857.22863,0.00675
1855.30004,0.00579
1853.37146,0.00472
1851.44287,0.00380
1849.51428,0.00299
1847.58570,0.00232
1845.65711,0.00199
1843.72853,0.00064
1841.79994,0.00000
1839.87135,0.00025
1837.94277,0.00004
1836.01418,-0.00015
1834.08559,-0.00026
1832.15701,-0.00005
1830.22842,-0.00048
1828.29984,-0.00072
1826.37125,-0.00001
1824.44266,0.00012
1822.51408,0.00044
1820.58549,0.00108
1818.65690,0.00178
1816.72832,0.00257
1814.79973,0.00333
1812.87114,0.00421
1810.94256,0.00501
1809.01397,0.00603
1807.08539,0.00730
1805.15680,0.00874
1803.22821,0.01028
1801.29963,0.01161
1799.37104,0.01289
1797.44245,0.01454
1795.51387,0.01670
1793.58528,0.01874
1791.65669,0.02022
1789.72811,0.02219
1787.79952,0.02500
1785.87094,0.02731
1783.94235,0.02935
1782.01376,0.03162
1780.08518,0.03377
1778.15659,0.03612
1776.22800,0.03843
1774.29942,0.04067
1772.37083,0.04198
1770.44225,0.04328
1768.51366,0.04577
1766.58507,0.04781
1764.65649,0.05015
1762.72790,0.05217
1760.79931,0.05368
1758.87073,0.05632
1756.94214,0.05870
1755.01355,0.06129
1753.08497,0.06437
1751.15638,0.06691
1749.22780,0.06976
1747.29921,0.07342
1745.37062,0.07736
1743.44204,0.08139
1741.51345,0.08538
1739.58486,0.08900
1737.65628,0.09280
1735.72769,0.09663
1733.79911,0.09849
1731.87052,0.10058
1729.94193,0.10406
1728.01335,0.10691
1726.08476,0.10988
1724.15617,0.11244
1722.22759,0.11508
1720.29900,0.11840
1718.37041,0.12073
1716.44183,0.12269
1714.51324,0.12535
1712.58466,0.12860
1710.65607,0.13145
1708.72748,0.13374
1706.79890,0.13600
1704.87031,0.13770
1702.94172,0.14064
1701.01314,0.14294
1699.08455,0.14387
1697.15596,0.14709
1695.22738,0.14910
1693.29879,0.15140
1691.37021,0.15491
1689.44162,0.15702
1687.51303,0.15975
1685.58445,0.16209
1683.65586,0.16233
1681.72727,0.16489
1679.79869,0.16820
1677.87010,0.17096
1675.94152,0.17292
1674.01293,0.17433
1672.08434,0.17665
1670.15576,0.17819
1668.22717,0.17915
1666.29858,0.18122
1664.37000,0.18305
1662.44141,0.18373
1660.51282,0.18477
1658.58424,0.18617
1656.65565,0.18727
1654.72707,0.18799
1652.79848,0.18528
1650.86989,0.18503
1648.94131,0.18748
1647.01272,0.18731
1645.08413,0.18656
1643.15555,0.18762
1641.22696,0.18868
1639.29838,0.18944
1637.36979,0.18998
1635.44120,0.18905
1633.51262,0.18884
1631.58403,0.19027
1629.65544,0.19032
1627.72686,0.18936
1625.79827,0.18834
1623.86968,0.18681
1621.94110,0.18484
1620.01251,0.18389
1618.08393,0.18294
1616.15534,0.17984
1614.22675,0.17875
1612.29817,0.17860
1610.36958,0.17757
1608.44099,0.17671
1606.51241,0.17562
1604.58382,0.17439
1602.65524,0.17280
1600.72665,0.17148
1598.79806,0.17011
1596.86948,0.16860
1594.94089,0.16724
1593.01230,0.16569
1591.08372,0.16421
1589.15513,0.16252
1587.22654,0.16106
1585.29796,0.15949
1583.36937,0.15770
1581.44079,0.15562
1579.51220,0.15386
1577.58361,0.15236
1575.65503,0.14925
1573.72644,0.14788
1571.79785,0.14793
1569.86927,0.14632
1567.94068,0.14482
1566.01209,0.14475
1564.08351,0.14432
1562.15492,0.14454
1560.22634,0.14445
1558.29775,0.14114
1556.36916,0.14124
1554.44058,0.14218
1552.51199,0.14202
1550.58340,0.14231
1548.65482,0.14196
1546.72623,0.14193
1544.79765,0.14135
1542.86906,0.14061
1540.94047,0.13978
1539.01189,0.13678
1537.08330,0.13694
1535.15471,0.13753
1533.22613,0.13608
1531.29754,0.13490
1529.36895,0.13463
1527.44037,0.13366
1525.51178,0.13212
1523.58320,0.13200
1521.65461,0.13141
1519.72602,0.13097
1517.79744,0.13170
1515.86885,0.13159
1513.94026,0.13123
1512.01168,0.12986
1510.08309,0.12772
1508.15451,0.12519
1506.22592,0.11975
1504.29733,0.11616
1502.36875,0.11468
1500.44016,0.11208
1498.51157,0.10868
1496.58299,0.10470
1494.65440,0.10136
1492.72581,0.09959
1490.79723,0.09732
1488.86864,0.09464
1486.94006,0.09321
1485.01147,0.09266
1483.08288,0.09274
1481.15430,0.09305
1479.22571,0.09389
1477.29712,0.09561
1475.36854,0.09790
1473.43995,0.10105
1471.51137,0.10535
1469.58278,0.11089
1467.65419,0.11598
1465.72561,0.11842
1463.79702,0.11941
1461.86843,0.12054
1459.93985,0.12172
1458.01126,0.12214
1456.08267,0.12143
1454.15409,0.12252
1452.22550,0.12361
1450.29692,0.12366
1448.36833,0.12338
1446.43974,0.12279
1444.51116,0.12269
1442.58257,0.12249
1440.65398,0.12225
1438.72540,0.12231
1436.79681,0.12160
1434.86822,0.12129
1432.93964,0.12210
1431.01105,0.12248
1429.08247,0.12237
1427.15388,0.12275
1425.22529,0.12305
1423.29671,0.12313
1421.36812,0.12341
1419.43953,0.12286
1417.51095,0.12203
1415.58236,0.12227
1413.65378,0.12222
1411.72519,0.12161
1409.79660,0.12072
1407.86802,0.11995
1405.93943,0.11936
1404.01084,0.11822
1402.08226,0.11740
1400.15367,0.11631
1398.22508,0.11490
1396.29650,0.11419
1394.36791,0.11304
1392.43933,0.11203
1390.51074,0.11154
1388.58215,0.11033
1386.65357,0.10786
1384.72498,0.10622
1382.79639,0.10712
1380.86781,0.10910
1378.93922,0.11046
1377.01064,0.11074
1375.08205,0.11023
1373.15346,0.10943
1371.22488,0.10864
1369.29629,0.10789
1367.36770,0.10661
1365.43912,0.10514
1363.51053,0.10349
1361.58194,0.10186
1359.65336,0.10096
1357.72477,0.10021
1355.79619,0.09941
1353.86760,0.09869
1351.93901,0.09800
1350.01043,0.09741
1348.08184,0.09697
1346.15325,0.09645
1344.22467,0.09588
1342.29608,0.09552
1340.36750,0.09504
1338.43891,0.09448
1336.51032,0.09420
1334.58174,0.09397
1332.65315,0.09357
1330.72456,0.09317
1328.79598,0.09289
1326.86739,0.09251
1324.93880,0.09216
1323.01022,0.09198
1321.08163,0.09172
1319.15305,0.09139
1317.22446,0.09110
1315.29587,0.09088
1313.36729,0.09036
1311.43870,0.08992
1309.51011,0.08996
1307.58153,0.08967
1305.65294,0.08932
1303.72435,0.08931
1301.79577,0.08935
1299.86718,0.08948
1297.93860,0.08968
1296.01001,0.09008
1294.08142,0.09063
1292.15284,0.09139
1290.22425,0.09240
1288.29566,0.09347
1286.36708,0.09477
1284.43849,0.09622
1282.50991,0.09781
1280.58132,0.09949
1278.65273,0.10116
1276.72415,0.10308
1274.79556,0.10498
1272.86697,0.10680
1270.93839,0.10896
1269.00980,0.11136
1267.08121,0.11411
1265.15263,0.11729
1263.22404,0.12064
1261.29546,0.12433
1259.36687,0.12857
1257.43828,0.13331
1255.50970,0.13845
1253.58111,0.14412
1251.65252,0.14997
1249.72394,0.15536
1247.79535,0.16062
1245.86677,0.16595
1243.93818,0.17092
1242.00959,0.17519
1240.08101,0.17910
1238.15242,0.18303
1236.22383,0.18643
1234.29525,0.18933
1232.36666,0.19203
1230.43807,0.19460
1228.50949,0.19689
1226.58090,0.19888
1224.65232,0.20085
1222.72373,0.20258
1220.79514,0.20441
1218.86656,0.20642
1216.93797,0.20833
1215.00938,0.21018
1213.08080,0.21188
1211.15221,0.21374
1209.22363,0.21545
1207.29504,0.21682
1205.36645,0.21830
1203.43787,0.21981
1201.50928,0.22118
1199.58069,0.22239
1197.65211,0.22391
1195.72352,0.22540
1193.79493,0.22652
1191.86635,0.22778
1189.93776,0.22913
1188.00918,0.23042
1186.08059,0.23170
1184.15200,0.23320
1182.22342,0.23475
1180.29483,0.23622
1178.36624,0.23786
1176.43766,0.23988
1174.50907,0.24233
1172.58048,0.24475
1170.65190,0.24693
1168.72331,0.24927
1166.79473,0.25201
1164.86614,0.25442
1162.93755,0.25621
1161.00897,0.25796
1159.08038,0.25922
1157.15179,0.25998
1155.22321,0.26059
1153.29462,0.26122
1151.36604,0.26241
1149.43745,0.26423
1147.50886,0.26607
1145.58028,0.26778
1143.65169,0.26994
1141.72310,0.27205
1139.79452,0.27437
1137.86593,0.27743
1135.93734,0.28039
1134.00876,0.28339
1132.08017,0.28652
1130.15159,0.28936
1128.22300,0.29268
1126.29441,0.29731
1124.36583,0.30195
1122.43724,0.30594
1120.50865,0.31059
1118.58007,0.31587
1116.65148,0.32122
1114.72290,0.32687
1112.79431,0.33310
1110.86572,0.33921
1108.93714,0.34534
1107.00855,0.35131
1105.07996,0.35608
1103.15138,0.36057
1101.22279,0.36428
1099.29420,0.36687
1097.36562,0.36904
1095.43703,0.37055
1093.50845,0.37115
1091.57986,0.37107
1089.65127,0.37154
1087.72269,0.37143
1085.79410,0.37022
1083.86551,0.36882
1081.93693,0.36714
1080.00834,0.36528
1078.07976,0.36304
1076.15117,0.36057
1074.22258,0.35809
1072.29400,0.35627
1070.36541,0.35476
1068.43682,0.35289
1066.50824,0.35100
1064.57965,0.34880
1062.65106,0.34625
1060.72248,0.34344
1058.79389,0.34078
1056.86531,0.33762
1054.93672,0.33392
1053.00813,0.33041
1051.07955,0.32696
1049.15096,0.32402
1047.22237,0.32162
1045.29379,0.31967
1043.36520,0.31774
1041.43661,0.31631
1039.50803,0.31555
1037.57944,0.31436
1035.65086,0.31323
1033.72227,0.31205
1031.79368,0.31033
1029.86510,0.30783
1027.93651,0.30457
1026.00792,0.30084
1024.07934,0.29711
1022.15075,0.29372
1020.22217,0.29002
1018.29358,0.28663
1016.36499,0.28361
1014.43641,0.28047
1012.50782,0.27749
1010.57923,0.27436
1008.65065,0.27079
1006.72206,0.26696
1004.79347,0.26355
1002.86489,0.26011
1000.93630,0.25645
999.00772,0.25233
997.07913,0.24770
995.15054,0.24363
993.22196,0.23950
991.29337,0.23490
989.36478,0.22969
987.43620,0.22421
985.50761,0.21913
983.57903,0.21353
981.65044,0.20724
979.72185,0.20047
977.79327,0.19367
975.86468,0.18674
973.93609,0.17929
972.00751,0.17194
970.07892,0.16482
968.15033,0.15787
966.22175,0.15120
964.29316,0.14493
962.36458,0.13897
960.43599,0.13340
958.50740,0.12898
956.57882,0.12529
954.65023,0.12166
952.72164,0.11857
950.79306,0.11605
948.86447,0.11352
946.93589,0.11112
945.00730,0.10935
943.07871,0.10814
941.15013,0.10658
939.22154,0.10491
937.29295,0.10385
935.36437,0.10254
933.43578,0.10112
931.50719,0.09984
929.57861,0.09855
927.65002,0.09757
925.72144,0.09677
923.79285,0.09622
921.86426,0.09547
919.93568,0.09479
918.00709,0.09434
916.07850,0.09391
914.14992,0.09345
912.22133,0.09173
910.29274,0.08906
908.36416,0.08563
906.43557,0.08107
904.50699,0.07596
902.57840,0.07064
900.64981,0.06601
898.72123,0.06129
896.79264,0.05611
894.86405,0.05145
892.93547,0.04731
891.00688,0.04384
889.07830,0.04060
887.14971,0.03751
885.22112,0.03478
883.29254,0.03160
881.36395,0.02804
879.43536,0.02516
877.50678,0.02299
875.57819,0.02061
873.64960,0.01806
871.72102,0.01544
869.79243,0.01253
867.86385,0.00994
865.93526,0.00788
864.00667,0.00565
862.07809,0.00357
860.14950,0.00229
858.22091,0.00129
856.29233,0.00049
854.36374,0.00000
852.43516,0.00009
850.50657,0.00096
848.57798,0.00179
846.64940,0.00296
844.72081,0.00473
842.79222,0.00719
840.86364,0.01042
838.93505,0.01351
837.00646,0.01704
835.07788,0.02080
833.14929,0.02371
831.22071,0.02642
829.29212,0.02896
827.36353,0.03053
825.43495,0.03093
823.50636,0.03144
821.57777,0.03292
819.64919,0.03449
817.72060,0.03634
815.79201,0.03849
813.86343,0.04056
811.93484,0.04314
810.00626,0.04697
808.07767,0.05248
806.14908,0.05894
804.22050,0.06517
802.29191,0.06991
800.36332,0.07214
798.43474,0.07170
796.50615,0.06850
794.57757,0.06387
792.64898,0.05943
790.72039,0.05555
788.79181,0.05263
786.86322,0.05116
784.93463,0.05110
783.00605,0.05157
781.07746,0.05180
779.14887,0.05040
777.22029,0.04597
775.29170,0.04010
773.36312,0.03456
771.43453,0.02937
769.50594,0.02549
767.57736,0.02333
765.64877,0.02161
763.72018,0.02068
761.79160,0.02100
759.86301,0.02167
757.93443,0.02233
756.00584,0.02219
754.07725,0.02170
752.14867,0.02171
750.22008,0.02081
748.29149,0.01905
746.36291,0.01750
744.43432,0.01581
742.50573,0.01348
740.57715,0.01105
738.64856,0.00894
736.71998,0.00684
734.79139,0.00568
732.86280,0.00523
730.93422,0.00434
729.00563,0.00379
727.07704,0.00367
725.14846,0.00395
723.21987,0.00443
721.29129,0.00419
719.36270,0.00337
717.43411,0.00213
715.50553,0.00104
713.57694,0.00067
711.64835,0.00087
709.71977,0.00127
707.79118,0.00208
705.86259,0.00416
703.93401,0.00668
702.00542,0.00930
700.07684,0.01323
698.14825,0.01824
696.21966,0.02207
694.29108,0.02179
692.36249,0.01795
690.43390,0.01384
688.50532,0.01132
686.57673,0.00950
684.64814,0.00752
682.71956,0.00631
680.79097,0.00556
678.86239,0.00515
676.93380,0.00490
675.00521,0.00366
673.07663,0.00232
671.14804,0.00141
669.21945,0.00039
667.29087,0.00000
665.36228,0.00075
663.43370,0.00147
661.50511,0.00100
659.57652,-0.00035
657.64794,-0.00129
655.71935,-0.00111
653.79076,-0.00060
651.86218,0.00009
649.93359,0.00033
648.00500,0.00030
646.07642,0.00068
644.14783,0.00046
642.21925,0.00053
640.29066,0.00099
638.36207,0.00115
636.43349,0.00115
634.50490,0.00115
632.57631,0.00144
630.64773,0.00116
628.71914,0.00155
626.79056,0.00278
624.86197,0.00304
622.93338,0.00291
621.00480,0.00302
619.07621,0.00327
617.14762,0.00353
615.21904,0.00452
613.29045,0.00615
611.36186,0.00744
609.43328,0.00802
607.50469,0.00794
605.57611,0.00826
603.64752,0.00927
601.71893,0.01095
599.79035,0.01334
597.86176,0.01588
595.93317,0.01831
594.00459,0.02050
592.07600,0.02196
590.14742,0.02298
588.21883,0.02522
586.29024,0.02847
584.36166,0.03214
582.43307,0.03595
580.50448,0.03936
578.57590,0.04210
576.64731,0.04445
574.71872,0.04832
572.79014,0.05227
570.86155,0.05516
568.93297,0.05918
567.00438,0.06402
565.07579,0.06871
563.14721,0.07254
561.21862,0.07586
559.29003,0.07956
557.36145,0.08357
555.43286,0.08700
553.50427,0.08845
551.57569,0.08988
549.64710,0.09340
547.71852,0.09801
545.78993,0.10225
543.86134,0.10535
541.93276,0.10902
540.00417,0.11455
538.07558,0.11973
536.14700,0.12346
534.21841,0.12735
532.28983,0.13150
530.36124,0.13316
528.43265,0.13163
526.50407,0.13012
524.57548,0.12891
522.64689,0.12762
520.71831,0.12698
518.78972,0.12408
516.86113,0.11877
514.93255,0.11479
513.00396,0.11152
511.07538,0.10772
509.14679,0.10536
507.21820,0.10407
505.28962,0.10372
503.36103,0.10486
501.43244,0.10710
499.50386,0.11182
497.57527,0.11725
495.64669,0.12263
493.71810,0.13004
491.78951,0.13790
489.86093,0.14658
487.93234,0.15718
486.00375,0.16733
484.07517,0.17708
482.14658,0.18780
480.21799,0.19664
478.28941,0.20219
476.36082,0.20819
474.43224,0.21625
472.50365,0.22138
470.57506,0.22182
468.64648,0.22138
466.71789,0.21320
464.78930,0.19910
462.86072,0.18973
460.93213,0.18170
459.00355,0.16996
457.07496,0.15914
455.14637,0.15121
453.21779,0.14172
451.28920,0.13420
449.36061,0.12469
447.43203,0.11503
445.50344,0.11324
443.57485,0.11007
441.64627,0.10506
439.71768,0.09827
437.78910,0.09028
435.86051,0.08762
433.93192,0.08673
432.00334,0.08466
430.07475,0.08052
428.14616,0.07450
426.21758,0.06438
424.28899,0.05383
422.36040,0.04698
420.43182,0.04546
418.50323,0.05295
416.57465,0.04650
414.64606,0.03567
412.71747,0.03257
410.78889,0.02317
408.86030,0.01750
406.93171,0.01153
405.00313,0.00000
403.07454,0.00410
401.14596,0.00870
399.21737,0.00000
