3747.24323,0.00000
3745.31464,0.00126
3743.38605,0.00099
3741.45747,0.00119
3739.52888,0.00235
3737.60030,0.00305
3735.67171,0.00360
3733.74312,0.00389
3731.81454,0.00421
3729.88595,0.00459
3727.95736,0.00552
3726.02878,0.00649
3724.10019,0.00731
3722.17161,0.00862
3720.24302,0.00985
3718.31443,0.01163
3716.38585,0.01378
3714.45726,0.01641
3712.52867,0.01926
3710.60009,0.02149
3708.67150,0.02425
3706.74291,0.02726
3704.81433,0.03062
3702.88574,0.03387
3700.95716,0.03625
3699.02857,0.03841
3697.09998,0.03978
3695.17140,0.04073
3693.24281,0.04145
3691.31422,0.04244
3689.38564,0.04371
3687.45705,0.04475
3685.52846,0.04676
3683.59988,0.04962
3681.67129,0.05283
3679.74271,0.05612
3677.81412,0.05997
3675.88553,0.06409
3673.95695,0.06799
3672.02836,0.07261
3670.09977,0.07711
3668.17119,0.08120
3666.24260,0.08554
3664.31402,0.08990
3662.38543,0.09444
3660.45684,0.09882
3658.52826,0.10287
3656.59967,0.10666
3654.67108,0.11014
3652.74250,0.11394
3650.81391,0.11750
3648.88532,0.12014
3646.95674,0.12274
3645.02815,0.12583
3643.09957,0.12893
3641.17098,0.13178
3639.24239,0.13455
3637.31381,0.13739
3635.38522,0.14045
3633.45663,0.14354
3631.52805,0.14657
3629.59946,0.14904
3627.67088,0.15044
3625.74229,0.15185
3623.81370,0.15326
3621.88512,0.15405
3619.95653,0.15387
3618.02794,0.15228
3616.09936,0.15085
3614.17077,0.15002
3612.24218,0.14890
3610.31360,0.14777
3608.38501,0.14673
3606.45643,0.14573
3604.52784,0.14500
3602.59925,0.14429
3600.67067,0.14351
3598.74208,0.14292
3596.81349,0.14260
3594.88491,0.14238
3592.95632,0.14194
3591.02774,0.14178
3589.09915,0.14195
3587.17056,0.14190
3585.24198,0.14201
3583.31339,0.14236
3581.38480,0.14271
3579.45622,0.14313
3577.52763,0.14370
3575.59904,0.14438
3573.67046,0.14508
3571.74187,0.14591
3569.81329,0.14691
3567.88470,0.14793
3565.95611,0.14865
3564.02753,0.14935
3562.09894,0.15037
3560.17035,0.15138
3558.24177,0.15228
3556.31318,0.15321
3554.38459,0.15418
3552.45601,0.15506
3550.52742,0.15596
3548.59884,0.15717
3546.67025,0.15832
3544.74166,0.15920
3542.81308,0.16009
3540.88449,0.16114
3538.95590,0.16210
3537.02732,0.16292
3535.09873,0.16386
3533.17015,0.16497
3531.24156,0.16610
3529.31297,0.16704
3527.38439,0.16797
3525.45580,0.16894
3523.52721,0.16992
3521.59863,0.17084
3519.67004,0.17172
3517.74145,0.17284
3515.81287,0.17384
3513.88428,0.17485
3511.95570,0.17603
3510.02711,0.17691
3508.09852,0.17774
3506.16994,0.17864
3504.24135,0.17960
3502.31276,0.18049
3500.38418,0.18125
3498.45559,0.18207
3496.52701,0.18293
3494.59842,0.18402
3492.66983,0.18512
3490.74125,0.18604
3488.81266,0.18681
3486.88407,0.18758
3484.95549,0.18854
3483.02690,0.18935
3481.09831,0.19019
3479.16973,0.19092
3477.24114,0.19139
3475.31256,0.19201
3473.38397,0.19276
3471.45538,0.19354
3469.52680,0.19430
3467.59821,0.19504
3465.66962,0.19573
3463.74104,0.19638
3461.81245,0.19705
3459.88386,0.19776
3457.95528,0.19840
3456.02669,0.19889
3454.09811,0.19938
3452.16952,0.19988
3450.24093,0.20056
3448.31235,0.20132
3446.38376,0.20199
3444.45517,0.20266
3442.52659,0.20315
3440.59800,0.20359
3438.66942,0.20404
3436.74083,0.20460
3434.81224,0.20528
3432.88366,0.20573
3430.95507,0.20612
3429.02648,0.20671
3427.09790,0.20724
3425.16931,0.20771
3423.24072,0.20816
3421.31214,0.20853
3419.38355,0.20891
3417.45497,0.20925
3415.52638,0.20977
3413.59779,0.21045
3411.66921,0.21092
3409.74062,0.21118
3407.81203,0.21129
3405.88345,0.21148
3403.95486,0.21166
3402.02628,0.21179
3400.09769,0.21214
3398.16910,0.21255
3396.24052,0.21299
3394.31193,0.21331
3392.38334,0.21340
3390.45476,0.21360
3388.52617,0.21380
3386.59758,0.21389
3384.66900,0.21408
3382.74041,0.21429
3380.81183,0.21451
3378.88324,0.21481
3376.95465,0.21510
3375.02607,0.21531
3373.09748,0.21534
3371.16889,0.21555
3369.24031,0.21597
3367.31172,0.21618
3365.38314,0.21638
3363.45455,0.21656
3361.52596,0.21667
3359.59738,0.21685
3357.66879,0.21714
3355.74020,0.21737
3353.81162,0.21736
3351.88303,0.21747
3349.95444,0.21766
3348.02586,0.21781
3346.09727,0.21791
3344.16869,0.21800
3342.24010,0.21796
3340.31151,0.21784
3338.38293,0.21796
3336.45434,0.21804
3334.52575,0.21808
3332.59717,0.21810
3330.66858,0.21799
3328.73999,0.21818
3326.81141,0.21837
3324.88282,0.21820
3322.95424,0.21803
3321.02565,0.21796
3319.09706,0.21789
3317.16848,0.21793
3315.23989,0.21796
3313.31130,0.21792
3311.38272,0.21782
3309.45413,0.21763
3307.52555,0.21766
3305.59696,0.21761
3303.66837,0.21735
3301.73979,0.21730
3299.81120,0.21731
3297.88261,0.21721
3295.95403,0.21696
3294.02544,0.21662
3292.09685,0.21625
3290.16827,0.21604
3288.23968,0.21583
3286.31110,0.21541
3284.38251,0.21504
3282.45392,0.21445
3280.52534,0.21384
3278.59675,0.21336
3276.66816,0.21266
3274.73958,0.21200
3272.81099,0.21137
3270.88241,0.21068
3268.95382,0.20987
3267.02523,0.20908
3265.09665,0.20845
3263.16806,0.20766
3261.23947,0.20677
3259.31089,0.20588
3257.38230,0.20499
3255.45371,0.20420
3253.52513,0.20343
3251.59654,0.20260
3249.66796,0.20170
3247.73937,0.20081
3245.81078,0.19991
3243.88220,0.19906
3241.95361,0.19836
3240.02502,0.19754
3238.09644,0.19675
3236.16785,0.19612
3234.23927,0.19531
3232.31068,0.19442
3230.38209,0.19366
3228.45351,0.19298
3226.52492,0.19233
3224.59633,0.19165
3222.66775,0.19103
3220.73916,0.19034
3218.81057,0.18953
3216.88199,0.18882
3214.95340,0.18799
3213.02482,0.18724
3211.09623,0.18668
3209.16764,0.18593
3207.23906,0.18513
3205.31047,0.18435
3203.38188,0.18355
3201.45330,0.18267
3199.52471,0.18184
3197.59612,0.18110
3195.66754,0.18039
3193.73895,0.17975
3191.81037,0.17888
3189.88178,0.17793
3187.95319,0.17709
3186.02461,0.17616
3184.09602,0.17529
3182.16743,0.17449
3180.23885,0.17372
3178.31026,0.17286
3176.38168,0.17188
3174.45309,0.17094
3172.52450,0.16998
3170.59592,0.16916
3168.66733,0.16850
3166.73874,0.16766
3164.81016,0.16671
3162.88157,0.16592
3160.95298,0.16518
3159.02440,0.16439
3157.09581,0.16351
3155.16723,0.16258
3153.23864,0.16188
3151.31005,0.16127
3149.38147,0.16052
3147.45288,0.15976
3145.52429,0.15912
3143.59571,0.15845
3141.66712,0.15777
3139.73854,0.15719
3137.80995,0.15646
3135.88136,0.15571
3133.95278,0.15510
3132.02419,0.15454
3130.09560,0.15411
3128.16702,0.15362
3126.23843,0.15297
3124.30984,0.15246
3122.38126,0.15200
3120.45267,0.15148
3118.52409,0.15101
3116.59550,0.15052
3114.66691,0.15013
3112.73833,0.14986
3110.80974,0.14932
3108.88115,0.14885
3106.95257,0.14861
3105.02398,0.14823
3103.09540,0.14778
3101.16681,0.14732
3099.23822,0.14695
3097.30964,0.14664
3095.38105,0.14630
3093.45246,0.14595
3091.52388,0.14552
3089.59529,0.14509
3087.66670,0.14476
3085.73812,0.14437
3083.80953,0.14396
3081.88095,0.14361
3079.95236,0.14311
3078.02377,0.14260
3076.09519,0.14214
3074.16660,0.14163
3072.23801,0.14124
3070.30943,0.14078
3068.38084,0.14011
3066.45225,0.13950
3064.52367,0.13897
3062.59508,0.13833
3060.66650,0.13763
3058.73791,0.13694
3056.80932,0.13617
3054.88074,0.13561
3052.95215,0.13512
3051.02356,0.13443
3049.09498,0.13365
3047.16639,0.13290
3045.23781,0.13229
3043.30922,0.13173
3041.38063,0.13115
3039.45205,0.13056
3037.52346,0.12997
3035.59487,0.12939
3033.66629,0.12894
3031.73770,0.12850
3029.80911,0.12794
3027.88053,0.12746
3025.95194,0.12705
3024.02336,0.12662
3022.09477,0.12628
3020.16618,0.12594
3018.23760,0.12565
3016.30901,0.12550
3014.38042,0.12548
3012.45184,0.12549
3010.52325,0.12553
3008.59467,0.12552
3006.66608,0.12545
3004.73749,0.12569
3002.80891,0.12621
3000.88032,0.12657
2998.95173,0.12690
2997.02315,0.12746
2995.09456,0.12811
2993.16597,0.12878
2991.23739,0.12960
2989.30880,0.13075
2987.38022,0.13209
2985.45163,0.13333
2983.52304,0.13471
2981.59446,0.13638
2979.66587,0.13810
2977.73728,0.13985
2975.80870,0.14150
2973.88011,0.14312
2971.95153,0.14498
2970.02294,0.14705
2968.09435,0.14912
2966.16577,0.15123
2964.23718,0.15342
2962.30859,0.15559
2960.38001,0.15773
2958.45142,0.15976
2956.52283,0.16180
2954.59425,0.16387
2952.66566,0.16579
2950.73708,0.16774
2948.80849,0.16993
2946.87990,0.17249
2944.95132,0.17556
2943.02273,0.17919
2941.09414,0.18333
2939.16556,0.18780
2937.23697,0.19252
2935.30838,0.19724
2933.37980,0.20179
2931.45121,0.20614
2929.52263,0.21004
2927.59404,0.21336
2925.66545,0.21584
2923.73687,0.21708
2921.80828,0.21686
2919.87969,0.21499
2917.95111,0.21103
2916.02252,0.20445
2914.09394,0.19601
2912.16535,0.18778
2910.23676,0.18104
2908.30818,0.17576
2906.37959,0.17138
2904.45100,0.16760
2902.52242,0.16435
2900.59383,0.16138
2898.66524,0.15858
2896.73666,0.15597
2894.80807,0.15347
2892.87949,0.15102
2890.95090,0.14858
2889.02231,0.14624
2887.09373,0.14411
2885.16514,0.14220
2883.23655,0.14061
2881.30797,0.13934
2879.37938,0.13839
2877.45080,0.13792
2875.52221,0.13794
2873.59362,0.13824
2871.66504,0.13852
2869.73645,0.13880
2867.80786,0.13930
2865.87928,0.14037
2863.95069,0.14244
2862.02210,0.14562
2860.09352,0.14996
2858.16493,0.15549
2856.23635,0.16117
2854.30776,0.16553
2852.37917,0.16728
2850.45059,0.16495
2848.52200,0.15789
2846.59341,0.14779
2844.66483,0.13733
2842.73624,0.12802
2840.80766,0.12028
2838.87907,0.11406
2836.95048,0.10906
2835.02190,0.10500
2833.09331,0.10166
2831.16472,0.09897
2829.23614,0.09668
2827.30755,0.09461
2825.37896,0.09276
2823.45038,0.09108
2821.52179,0.08957
2819.59321,0.08809
2817.66462,0.08672
2815.73603,0.08556
2813.80745,0.08446
2811.87886,0.08341
2809.95027,0.08231
2808.02169,0.08131
2806.09310,0.08044
2804.16451,0.07951
2802.23593,0.07859
2800.30734,0.07777
2798.37876,0.07704
2796.45017,0.07630
2794.52158,0.07553
2792.59300,0.07479
2790.66441,0.07413
2788.73582,0.07354
2786.80724,0.07290
2784.87865,0.07223
2782.95007,0.07160
2781.02148,0.07097
2779.09289,0.07038
2777.16431,0.06984
2775.23572,0.06922
2773.30713,0.06863
2771.37855,0.06816
2769.44996,0.06775
2767.52137,0.06734
2765.59279,0.06689
2763.66420,0.06648
2761.73562,0.06613
2759.80703,0.06575
2757.87844,0.06535
2755.94986,0.06496
2754.02127,0.06456
2752.09268,0.06416
2750.16410,0.06383
2748.23551,0.06348
2746.30693,0.06306
2744.37834,0.06271
2742.44975,0.06243
2740.52117,0.06214
2738.59258,0.06182
2736.66399,0.06150
2734.73541,0.06112
2732.80682,0.06071
2730.87823,0.06041
2728.94965,0.06003
2727.02106,0.05956
2725.09248,0.05919
2723.16389,0.05885
2721.23530,0.05847
2719.30672,0.05804
2717.37813,0.05759
2715.44954,0.05719
2713.52096,0.05682
2711.59237,0.05644
2709.66379,0.05607
2707.73520,0.05571
2705.80661,0.05526
2703.87803,0.05483
2701.94944,0.05453
2700.02085,0.05430
2698.09227,0.05403
2696.16368,0.05368
2694.23509,0.05332
2692.30651,0.05304
2690.37792,0.05278
2688.44934,0.05254
2686.52075,0.05231
2684.59216,0.05201
2682.66358,0.05165
2680.73499,0.05137
2678.80640,0.05120
2676.87782,0.05093
2674.94923,0.05050
2673.02064,0.05007
2671.09206,0.04964
2669.16347,0.04930
2667.23489,0.04907
2665.30630,0.04881
2663.37771,0.04843
2661.44913,0.04804
2659.52054,0.04777
2657.59195,0.04747
2655.66337,0.04713
2653.73478,0.04683
2651.80620,0.04651
2649.87761,0.04621
2647.94902,0.04589
2646.02044,0.04564
2644.09185,0.04539
2642.16326,0.04503
2640.23468,0.04474
2638.30609,0.04451
2636.37750,0.04423
2634.44892,0.04390
2632.52033,0.04350
2630.59175,0.04314
2628.66316,0.04293
2626.73457,0.04264
2624.80599,0.04230
2622.87740,0.04197
2620.94881,0.04158
2619.02023,0.04123
2617.09164,0.04091
2615.16306,0.04055
2613.23447,0.04022
2611.30588,0.03995
2609.37730,0.03971
2607.44871,0.03944
2605.52012,0.03914
2603.59154,0.03885
2601.66295,0.03856
2599.73436,0.03824
2597.80578,0.03786
2595.87719,0.03747
2593.94861,0.03718
2592.02002,0.03692
2590.09143,0.03658
2588.16285,0.03630
2586.23426,0.03603
2584.30567,0.03572
2582.37709,0.03545
2580.44850,0.03515
2578.51991,0.03483
2576.59133,0.03449
2574.66274,0.03427
2572.73416,0.03409
2570.80557,0.03381
2568.87698,0.03357
2566.94840,0.03337
2565.01981,0.03321
2563.09122,0.03300
2561.16264,0.03264
2559.23405,0.03234
2557.30547,0.03214
2555.37688,0.03189
2553.44829,0.03161
2551.51971,0.03139
2549.59112,0.03116
2547.66253,0.03087
2545.73395,0.03062
2543.80536,0.03040
2541.87677,0.03023
2539.94819,0.03008
2538.01960,0.02986
2536.09102,0.02964
2534.16243,0.02943
2532.23384,0.02914
2530.30526,0.02894
2528.37667,0.02879
2526.44808,0.02852
2524.51950,0.02825
2522.59091,0.02804
2520.66233,0.02782
2518.73374,0.02760
2516.80515,0.02736
2514.87657,0.02710
2512.94798,0.02684
2511.01939,0.02658
2509.09081,0.02635
2507.16222,0.02613
2505.23363,0.02592
2503.30505,0.02571
2501.37646,0.02540
2499.44788,0.02514
2497.51929,0.02493
2495.59070,0.02469
2493.66212,0.02451
2491.73353,0.02428
2489.80494,0.02404
2487.87636,0.02377
2485.94777,0.02343
2484.01919,0.02322
2482.09060,0.02302
2480.16201,0.02277
2478.23343,0.02254
2476.30484,0.02228
2474.37625,0.02198
2472.44767,0.02161
2470.51908,0.02135
2468.59049,0.02115
2466.66191,0.02085
2464.73332,0.02058
2462.80474,0.02034
2460.87615,0.02008
2458.94756,0.01982
2457.01898,0.01955
2455.09039,0.01930
2453.16180,0.01908
2451.23322,0.01888
2449.30463,0.01857
2447.37604,0.01816
2445.44746,0.01789
2443.51887,0.01778
2441.59029,0.01762
2439.66170,0.01737
2437.73311,0.01707
2435.80453,0.01681
2433.87594,0.01656
2431.94735,0.01628
2430.01877,0.01600
2428.09018,0.01573
2426.16160,0.01545
2424.23301,0.01516
2422.30442,0.01498
2420.37584,0.01486
2418.44725,0.01461
2416.51866,0.01431
2414.59008,0.01404
2412.66149,0.01379
2410.73290,0.01359
2408.80432,0.01338
2406.87573,0.01314
2404.94715,0.01288
2403.01856,0.01267
2401.08997,0.01251
2399.16139,0.01225
2397.23280,0.01197
2395.30421,0.01174
2393.37563,0.01155
2391.44704,0.01132
2389.51846,0.01107
2387.58987,0.01089
2385.66128,0.01073
2383.73270,0.01057
2381.80411,0.01032
2379.87552,0.01004
2377.94694,0.00984
2376.01835,0.00960
2374.08976,0.00928
2372.16118,0.00899
2370.23259,0.00870
2368.30401,0.00844
2366.37542,0.00824
2364.44683,0.00794
2362.51825,0.00753
2360.58966,0.00729
2358.66107,0.00716
2356.73249,0.00698
2354.80390,0.00689
2352.87532,0.00686
2350.94673,0.00686
2349.01814,0.00703
2347.08956,0.00713
2345.16097,0.00696
2343.23238,0.00672
2341.30380,0.00648
2339.37521,0.00629
2337.44662,0.00614
2335.51804,0.00594
2333.58945,0.00580
2331.66087,0.00569
2329.73228,0.00557
2327.80369,0.00541
2325.87511,0.00521
2323.94652,0.00511
2322.01793,0.00508
2320.08935,0.00500
2318.16076,0.00493
2316.23217,0.00493
2314.30359,0.00490
2312.37500,0.00482
2310.44642,0.00469
2308.51783,0.00459
2306.58924,0.00459
2304.66066,0.00453
2302.73207,0.00443
2300.80348,0.00430
2298.87490,0.00419
2296.94631,0.00413
2295.01773,0.00402
2293.08914,0.00389
2291.16055,0.00386
2289.23197,0.00382
2287.30338,0.00375
2285.37479,0.00368
2283.44621,0.00351
2281.51762,0.00336
2279.58903,0.00329
2277.66045,0.00316
2275.73186,0.00307
2273.80328,0.00304
2271.87469,0.00296
2269.94610,0.00291
2268.01752,0.00287
2266.08893,0.00275
2264.16034,0.00266
2262.23176,0.00262
2260.30317,0.00251
2258.37459,0.00243
2256.44600,0.00237
2254.51741,0.00226
2252.58883,0.00224
2250.66024,0.00221
2248.73165,0.00215
2246.80307,0.00212
2244.87448,0.00206
2242.94589,0.00194
2241.01731,0.00182
2239.08872,0.00175
2237.16014,0.00172
2235.23155,0.00173
2233.30296,0.00165
2231.37438,0.00156
2229.44579,0.00151
2227.51720,0.00139
2225.58862,0.00130
2223.66003,0.00128
2221.73145,0.00122
2219.80286,0.00111
2217.87427,0.00100
2215.94569,0.00097
2214.01710,0.00092
2212.08851,0.00082
2210.15993,0.00076
2208.23134,0.00073
2206.30275,0.00070
2204.37417,0.00061
2202.44558,0.00048
2200.51700,0.00042
2198.58841,0.00039
2196.65982,0.00040
2194.73124,0.00043
2192.80265,0.00037
2190.87406,0.00038
2188.94548,0.00042
2187.01689,0.00041
2185.08830,0.00037
2183.15972,0.00026
2181.23113,0.00022
2179.30255,0.00024
2177.37396,0.00018
2175.44537,0.00017
2173.51679,0.00022
2171.58820,0.00012
2169.65961,0.00000
2167.73103,0.00008
2165.80244,0.00020
2163.87386,0.00027
2161.94527,0.00025
2160.01668,0.00018
2158.08810,0.00019
2156.15951,0.00020
2154.23092,0.00020
2152.30234,0.00019
2150.37375,0.00018
2148.44516,0.00025
2146.51658,0.00023
2144.58799,0.00021
2142.65941,0.00021
2140.73082,0.00017
2138.80223,0.00021
2136.87365,0.00019
2134.94506,0.00009
2133.01647,0.00000
2131.08789,-0.00001
2129.15930,0.00001
2127.23072,-0.00003
2125.30213,-0.00002
2123.37354,0.00000
2121.44496,-0.00003
2119.51637,-0.00007
2117.58778,-0.00009
2115.65920,-0.00007
2113.73061,-0.00008
2111.80202,-0.00009
2109.87344,-0.00011
2107.94485,-0.00009
2106.01627,-0.00006
2104.08768,-0.00005
2102.15909,-0.00006
2100.23051,-0.00018
2098.30192,-0.00025
2096.37333,-0.00019
2094.44475,-0.00016
2092.51616,-0.00016
2090.58758,-0.00012
2088.65899,-0.00006
2086.73040,-0.00001
2084.80182,0.00002
2082.87323,-0.00000
2080.94464,0.00000
2079.01606,0.00001
2077.08747,-0.00003
2075.15888,-0.00012
2073.23030,-0.00014
2071.30171,-0.00008
2069.37313,-0.00008
2067.44454,-0.00018
2065.51595,-0.00023
2063.58737,-0.00019
2061.65878,-0.00015
2059.73019,-0.00008
2057.80161,-0.00004
2055.87302,-0.00004
2053.94443,0.00001
2052.01585,0.00010
2050.08726,0.00017
2048.15868,0.00026
2046.23009,0.00039
2044.30150,0.00051
2042.37292,0.00065
2040.44433,0.00084
2038.51574,0.00104
2036.58716,0.00125
2034.65857,0.00152
2032.72999,0.00174
2030.80140,0.00186
2028.87281,0.00197
2026.94423,0.00205
2025.01564,0.00208
2023.08705,0.00216
2021.15847,0.00222
2019.22988,0.00230
2017.30129,0.00244
2015.37271,0.00260
2013.44412,0.00284
2011.51554,0.00301
2009.58695,0.00316
2007.65836,0.00339
2005.72978,0.00355
2003.80119,0.00359
2001.87260,0.00358
1999.94402,0.00364
1998.01543,0.00366
1996.08685,0.00360
1994.15826,0.00358
1992.22967,0.00347
1990.30109,0.00333
1988.37250,0.00330
1986.44391,0.00326
1984.51533,0.00315
1982.58674,0.00305
1980.65815,0.00296
1978.72957,0.00286
1976.80098,0.00282
1974.87240,0.00277
1972.94381,0.00262
1971.01522,0.00241
1969.08664,0.00226
1967.15805,0.00207
1965.22946,0.00180
1963.30088,0.00157
1961.37229,0.00137
1959.44371,0.00123
1957.51512,0.00114
1955.58653,0.00109
1953.65795,0.00101
1951.72936,0.00088
1949.80077,0.00079
1947.87219,0.00067
1945.94360,0.00058
1944.01501,0.00050
1942.08643,0.00027
1940.15784,0.00013
1938.22926,0.00016
1936.30067,0.00013
1934.37208,0.00001
1932.44350,-0.00012
1930.51491,-0.00014
1928.58632,-0.00013
1926.65774,-0.00008
1924.72915,0.00000
1922.80056,-0.00006
1920.87198,0.00002
1918.94339,0.00024
1917.01481,0.00036
1915.08622,0.00055
1913.15763,0.00098
1911.22905,0.00140
1909.30046,0.00182
1907.37187,0.00231
1905.44329,0.00287
1903.51470,0.00342
1901.58612,0.00394
1899.65753,0.00446
1897.72894,0.00502
1895.80036,0.00563
1893.87177,0.00612
1891.94318,0.00657
1890.01460,0.00702
1888.08601,0.00734
1886.15742,0.00762
1884.22884,0.00782
1882.30025,0.00799
1880.37167,0.00815
1878.44308,0.00835
1876.51449,0.00851
1874.58591,0.00849
1872.65732,0.00854
1870.72873,0.00860
1868.80015,0.00842
1866.87156,0.00804
1864.94298,0.00767
1863.01439,0.00720
1861.08580,0.00659
1859.15722,0.00597
1857.22863,0.00518
1855.30004,0.00433
1853.37146,0.00355
1851.44287,0.00285
1849.51428,0.00218
1847.58570,0.00155
1845.65711,0.00110
1843.72853,0.00047
1841.79994,0.00000
1839.87135,-0.00019
1837.94277,-0.00045
1836.01418,-0.00067
1834.08559,-0.00081
1832.15701,-0.00080
1830.22842,-0.00087
1828.29984,-0.00095
1826.37125,-0.00073
1824.44266,-0.00054
1822.51408,-0.00035
1820.58549,0.00000
1818.65690,0.00040
1816.72832,0.00078
1814.79973,0.00121
1812.87114,0.00184
1810.94256,0.00249
1809.01397,0.00323
1807.08539,0.00408
1805.15680,0.00497
1803.22821,0.00602
1801.29963,0.00710
1799.37104,0.00820
1797.44245,0.00948
1795.51387,0.01093
1793.58528,0.01245
1791.65669,0.01389
1789.72811,0.01535
1787.79952,0.01708
1785.87094,0.01869
1783.94235,0.02025
1782.01376,0.02206
1780.08518,0.02392
1778.15659,0.02570
1776.22800,0.02737
1774.29942,0.02913
1772.37083,0.03069
1770.44225,0.03215
1768.51366,0.03378
1766.58507,0.03529
1764.65649,0.03716
1762.72790,0.03915
1760.79931,0.04096
1758.87073,0.04315
1756.94214,0.04548
1755.01355,0.04796
1753.08497,0.05081
1751.15638,0.05377
1749.22780,0.05677
1747.29921,0.06010
1745.37062,0.06372
1743.44204,0.06752
1741.51345,0.07137
1739.58486,0.07511
1737.65628,0.07881
1735.72769,0.08249
1733.79911,0.08556
1731.87052,0.08805
1729.94193,0.09083
1728.01335,0.09367
1726.08476,0.09659
1724.15617,0.09958
1722.22759,0.10265
1720.29900,0.10608
1718.37041,0.10923
1716.44183,0.11200
1714.51324,0.11463
1712.58466,0.11725
1710.65607,0.11992
1708.72748,0.12241
1706.79890,0.12501
1704.87031,0.12756
1702.94172,0.13045
1701.01314,0.13360
1699.08455,0.13638
1697.15596,0.13962
1695.22738,0.14271
1693.29879,0.14554
1691.37021,0.14891
1689.44162,0.15201
1687.51303,0.15510
1685.58445,0.15835
1683.65586,0.16110
1681.72727,0.16406
1679.79869,0.16715
1677.87010,0.17031
1675.94152,0.17336
1674.01293,0.17594
1672.08434,0.17851
1670.15576,0.18080
1668.22717,0.18277
1666.29858,0.18466
1664.37000,0.18653
1662.44141,0.18794
1660.51282,0.18885
1658.58424,0.18965
1656.65565,0.19015
1654.72707,0.19068
1652.79848,0.18987
1650.86989,0.18891
1648.94131,0.18910
1647.01272,0.18858
1645.08413,0.18758
1643.15555,0.18699
1641.22696,0.18684
1639.29838,0.18683
1637.36979,0.18697
1635.44120,0.18654
1633.51262,0.18559
1631.58403,0.18518
1629.65544,0.18423
1627.72686,0.18278
1625.79827,0.18100
1623.86968,0.17879
1621.94110,0.17609
1620.01251,0.17364
1618.08393,0.17166
1616.15534,0.16876
1614.22675,0.16634
1612.29817,0.16445
1610.36958,0.16239
1608.44099,0.16041
1606.51241,0.15841
1604.58382,0.15650
1602.65524,0.15436
1600.72665,0.15240
1598.79806,0.15048
1596.86948,0.14871
1594.94089,0.14692
1593.01230,0.14498
1591.08372,0.14320
1589.15513,0.14133
1587.22654,0.13974
1585.29796,0.13801
1583.36937,0.13618
1581.44079,0.13434
1579.51220,0.13280
1577.58361,0.13176
1575.65503,0.13017
1573.72644,0.12907
1571.79785,0.12869
1569.86927,0.12827
1567.94068,0.12799
1566.01209,0.12798
1564.08351,0.12804
1562.15492,0.12853
1560.22634,0.12940
1558.29775,0.12920
1556.36916,0.12923
1554.44058,0.12990
1552.51199,0.13025
1550.58340,0.13062
1548.65482,0.13062
1546.72623,0.13076
1544.79765,0.13091
1542.86906,0.13064
1540.94047,0.13034
1539.01189,0.12921
1537.08330,0.12846
1535.15471,0.12813
1533.22613,0.12717
1531.29754,0.12603
1529.36895,0.12513
1527.44037,0.12408
1525.51178,0.12275
1523.58320,0.12189
1521.65461,0.12108
1519.72602,0.12029
1517.79744,0.11981
1515.86885,0.11860
1513.94026,0.11661
1512.01168,0.11403
1510.08309,0.11116
1508.15451,0.10827
1506.22592,0.10418
1504.29733,0.10012
1502.36875,0.09707
1500.44016,0.09386
1498.51157,0.09050
1496.58299,0.08704
1494.65440,0.08373
1492.72581,0.08138
1490.79723,0.07927
1488.86864,0.07704
1486.94006,0.07536
1485.01147,0.07431
1483.08288,0.07404
1481.15430,0.07441
1479.22571,0.07528
1477.29712,0.07698
1475.36854,0.07967
1473.43995,0.08349
1471.51137,0.08842
1469.58278,0.09385
1467.65419,0.09847
1465.72561,0.10107
1463.79702,0.10217
1461.86843,0.10282
1459.93985,0.10375
1458.01126,0.10487
1456.08267,0.10533
1454.15409,0.10547
1452.22550,0.10544
1450.29692,0.10527
1448.36833,0.10513
1446.43974,0.10480
1444.51116,0.10459
1442.58257,0.10443
1440.65398,0.10424
1438.72540,0.10413
1436.79681,0.10370
1434.86822,0.10317
1432.93964,0.10289
1431.01105,0.10260
1429.08247,0.10216
1427.15388,0.10187
1425.22529,0.10172
1423.29671,0.10175
1421.36812,0.10210
1419.43953,0.10224
1417.51095,0.10197
1415.58236,0.10181
1413.65378,0.10149
1411.72519,0.10104
1409.79660,0.10055
1407.86802,0.09994
1405.93943,0.09920
1404.01084,0.09807
1402.08226,0.09705
1400.15367,0.09606
1398.22508,0.09492
1396.29650,0.09390
1394.36791,0.09268
1392.43933,0.09157
1390.51074,0.09067
1388.58215,0.08916
1386.65357,0.08597
1384.72498,0.08314
1382.79639,0.08435
1380.86781,0.08798
1378.93922,0.09013
1377.01064,0.09061
1375.08205,0.09028
1373.15346,0.08951
1371.22488,0.08877
1369.29629,0.08778
1367.36770,0.08642
1365.43912,0.08511
1363.51053,0.08382
1361.58194,0.08251
1359.65336,0.08142
1357.72477,0.08056
1355.79619,0.07983
1353.86760,0.07919
1351.93901,0.07862
1350.01043,0.07814
1348.08184,0.07772
1346.15325,0.07721
1344.22467,0.07674
1342.29608,0.07639
1340.36750,0.07611
1338.43891,0.07569
1336.51032,0.07518
1334.58174,0.07484
1332.65315,0.07450
1330.72456,0.07407
1328.79598,0.07371
1326.86739,0.07352
1324.93880,0.07329
1323.01022,0.07302
1321.08163,0.07288
1319.15305,0.07265
1317.22446,0.07255
1315.29587,0.07248
1313.36729,0.07229
1311.43870,0.07208
1309.51011,0.07192
1307.58153,0.07192
1305.65294,0.07189
1303.72435,0.07198
1301.79577,0.07221
1299.86718,0.07240
1297.93860,0.07266
1296.01001,0.07289
1294.08142,0.07338
1292.15284,0.07429
1290.22425,0.07526
1288.29566,0.07631
1286.36708,0.07760
1284.43849,0.07907
1282.50991,0.08060
1280.58132,0.08239
1278.65273,0.08434
1276.72415,0.08627
1274.79556,0.08838
1272.86697,0.09077
1270.93839,0.09337
1269.00980,0.09615
1267.08121,0.09929
1265.15263,0.10288
1263.22404,0.10691
1261.29546,0.11144
1259.36687,0.11653
1257.43828,0.12235
1255.50970,0.12884
1253.58111,0.13570
1251.65252,0.14275
1249.72394,0.14985
1247.79535,0.15671
1245.86677,0.16321
1243.93818,0.16947
1242.00959,0.17545
1240.08101,0.18089
1238.15242,0.18564
1236.22383,0.19000
1234.29525,0.19406
1232.36666,0.19780
1230.43807,0.20123
1228.50949,0.20429
1226.58090,0.20713
1224.65232,0.20977
1222.72373,0.21236
1220.79514,0.21489
1218.86656,0.21738
1216.93797,0.21998
1215.00938,0.22248
1213.08080,0.22516
1211.15221,0.22766
1209.22363,0.22990
1207.29504,0.23225
1205.36645,0.23443
1203.43787,0.23668
1201.50928,0.23875
1199.58069,0.24031
1197.65211,0.24188
1195.72352,0.24364
1193.79493,0.24541
1191.86635,0.24702
1189.93776,0.24879
1188.00918,0.25042
1186.08059,0.25171
1184.15200,0.25329
1182.22342,0.25523
1180.29483,0.25727
1178.36624,0.25929
1176.43766,0.26155
1174.50907,0.26406
1172.58048,0.26640
1170.65190,0.26882
1168.72331,0.27143
1166.79473,0.27407
1164.86614,0.27674
1162.93755,0.27922
1161.00897,0.28113
1159.08038,0.28242
1157.15179,0.28363
1155.22321,0.28496
1153.29462,0.28654
1151.36604,0.28862
1149.43745,0.29088
1147.50886,0.29304
1145.58028,0.29528
1143.65169,0.29790
1141.72310,0.30071
1139.79452,0.30364
1137.86593,0.30678
1135.93734,0.31018
1134.00876,0.31406
1132.08017,0.31800
1130.15159,0.32161
1128.22300,0.32602
1126.29441,0.33166
1124.36583,0.33729
1122.43724,0.34248
1120.50865,0.34780
1118.58007,0.35378
1116.65148,0.36034
1114.72290,0.36714
1112.79431,0.37406
1110.86572,0.38089
1108.93714,0.38776
1107.00855,0.39425
1105.07996,0.39965
1103.15138,0.40391
1101.22279,0.40743
1099.29420,0.41064
1097.36562,0.41287
1095.43703,0.41393
1093.50845,0.41405
1091.57986,0.41347
1089.65127,0.41271
1087.72269,0.41162
1085.79410,0.41040
1083.86551,0.40872
1081.93693,0.40648
1080.00834,0.40399
1078.07976,0.40118
1076.15117,0.39848
1074.22258,0.39576
1072.29400,0.39303
1070.36541,0.39037
1068.43682,0.38769
1066.50824,0.38515
1064.57965,0.38283
1062.65106,0.38046
1060.72248,0.37733
1058.79389,0.37370
1056.86531,0.36998
1054.93672,0.36617
1053.00813,0.36239
1051.07955,0.35919
1049.15096,0.35650
1047.22237,0.35426
1045.29379,0.35321
1043.36520,0.35266
1041.43661,0.35243
1039.50803,0.35242
1037.57944,0.35206
1035.65086,0.35159
1033.72227,0.35052
1031.79368,0.34886
1029.86510,0.34664
1027.93651,0.34368
1026.00792,0.34025
1024.07934,0.33637
1022.15075,0.33230
1020.22217,0.32833
1018.29358,0.32508
1016.36499,0.32198
1014.43641,0.31841
1012.50782,0.31505
1010.57923,0.31176
1008.65065,0.30818
1006.72206,0.30443
1004.79347,0.30055
1002.86489,0.29607
1000.93630,0.29101
999.00772,0.28597
997.07913,0.28085
995.15054,0.27568
993.22196,0.27061
991.29337,0.26549
989.36478,0.25993
987.43620,0.25370
985.50761,0.24699
983.57903,0.23989
981.65044,0.23248
979.72185,0.22454
977.79327,0.21622
975.86468,0.20750
973.93609,0.19840
972.00751,0.18946
970.07892,0.18057
968.15033,0.17194
966.22175,0.16407
964.29316,0.15692
962.36458,0.15039
960.43599,0.14448
958.50740,0.13939
956.57882,0.13474
954.65023,0.13057
952.72164,0.12733
950.79306,0.12447
948.86447,0.12158
946.93589,0.11902
945.00730,0.11716
943.07871,0.11583
941.15013,0.11456
939.22154,0.11319
937.29295,0.11176
935.36437,0.11030
933.43578,0.10888
931.50719,0.10763
929.57861,0.10656
927.65002,0.10554
925.72144,0.10427
923.79285,0.10296
921.86426,0.10247
919.93568,0.10250
918.00709,0.10211
916.07850,0.10126
914.14992,0.10034
912.22133,0.09876
910.29274,0.09602
908.36416,0.09217
906.43557,0.08725
904.50699,0.08189
902.57840,0.07610
900.64981,0.07005
898.72123,0.06437
896.79264,0.05902
894.86405,0.05460
892.93547,0.05082
891.00688,0.04697
889.07830,0.04327
887.14971,0.03993
885.22112,0.03693
883.29254,0.03368
881.36395,0.03041
879.43536,0.02758
877.50678,0.02486
875.57819,0.02223
873.64960,0.01949
871.72102,0.01648
869.79243,0.01352
867.86385,0.01089
865.93526,0.00852
864.00667,0.00664
862.07809,0.00534
860.14950,0.00373
858.22091,0.00216
856.29233,0.00128
854.36374,0.00055
852.43516,0.00000
850.50657,0.00020
848.57798,0.00111
846.64940,0.00248
844.72081,0.00469
842.79222,0.00753
840.86364,0.01040
838.93505,0.01386
837.00646,0.01815
835.07788,0.02191
833.14929,0.02496
831.22071,0.02806
829.29212,0.03022
827.36353,0.03135
825.43495,0.03282
823.50636,0.03473
821.57777,0.03624
819.64919,0.03709
817.72060,0.03831
815.79201,0.04058
813.86343,0.04338
811.93484,0.04624
810.00626,0.05022
808.07767,0.05631
806.14908,0.06367
804.22050,0.07103
802.29191,0.07625
800.36332,0.07830
798.43474,0.07730
796.50615,0.07362
794.57757,0.06860
792.64898,0.06310
790.72039,0.05846
788.79181,0.05521
786.86322,0.05330
784.93463,0.05341
783.00605,0.05474
781.07746,0.05568
779.14887,0.05409
777.22029,0.04898
775.29170,0.04200
773.36312,0.03511
771.43453,0.02918
769.50594,0.02474
767.57736,0.02216
765.64877,0.02097
763.72018,0.02113
761.79160,0.02196
759.86301,0.02245
757.93443,0.02263
756.00584,0.02268
754.07725,0.02279
752.14867,0.02240
750.22008,0.02111
748.29149,0.01943
746.36291,0.01816
744.43432,0.01693
742.50573,0.01483
740.57715,0.01222
738.64856,0.00928
736.71998,0.00706
734.79139,0.00572
732.86280,0.00453
730.93422,0.00395
729.00563,0.00378
727.07704,0.00446
725.14846,0.00515
723.21987,0.00479
721.29129,0.00413
719.36270,0.00321
717.43411,0.00256
715.50553,0.00201
713.57694,0.00127
711.64835,0.00080
709.71977,0.00123
707.79118,0.00239
705.86259,0.00321
703.93401,0.00469
702.00542,0.00772
700.07684,0.01190
698.14825,0.01635
696.21966,0.01959
694.29108,0.01922
692.36249,0.01553
690.43390,0.01247
688.50532,0.00979
686.57673,0.00721
684.64814,0.00641
682.71956,0.00592
680.79097,0.00499
678.86239,0.00415
676.93380,0.00392
675.00521,0.00379
673.07663,0.00319
671.14804,0.00275
669.21945,0.00184
667.29087,0.00040
665.36228,0.00000
663.43370,0.00062
661.50511,0.00067
659.57652,-0.00064
657.64794,-0.00053
655.71935,0.00081
653.79076,0.00057
651.86218,0.00048
649.93359,0.00157
648.00500,0.00199
646.07642,0.00252
644.14783,0.00336
642.21925,0.00307
640.29066,0.00302
638.36207,0.00413
636.43349,0.00436
634.50490,0.00394
632.57631,0.00463
630.64773,0.00533
628.71914,0.00540
626.79056,0.00548
624.86197,0.00548
622.93338,0.00623
621.00480,0.00779
619.07621,0.00859
617.14762,0.00920
615.21904,0.01035
613.29045,0.01093
611.36186,0.01207
609.43328,0.01364
607.50469,0.01457
605.57611,0.01590
603.64752,0.01659
601.71893,0.01710
599.79035,0.01922
597.86176,0.02171
595.93317,0.02355
594.00459,0.02561
592.07600,0.02902
590.14742,0.03280
588.21883,0.03495
586.29024,0.03613
584.36166,0.03929
582.43307,0.04339
580.50448,0.04672
578.57590,0.05082
576.64731,0.05471
574.71872,0.05889
572.79014,0.06381
570.86155,0.06756
568.93297,0.07131
567.00438,0.07541
565.07579,0.07965
563.14721,0.08436
561.21862,0.08883
559.29003,0.09293
557.36145,0.09743
555.43286,0.10291
553.50427,0.10735
551.57569,0.10987
549.64710,0.11242
547.71852,0.11591
545.78993,0.12069
543.86134,0.12659
541.93276,0.13271
540.00417,0.13772
538.07558,0.14103
536.14700,0.14559
534.21841,0.15081
532.28983,0.15304
530.36124,0.15387
528.43265,0.15418
526.50407,0.15263
524.57548,0.14980
522.64689,0.14714
520.71831,0.14459
518.78972,0.14056
516.86113,0.13630
514.93255,0.13324
513.00396,0.12932
511.07538,0.12477
509.14679,0.12145
507.21820,0.11858
505.28962,0.11742
503.36103,0.12010
501.43244,0.12458
499.50386,0.12818
497.57527,0.13259
495.64669,0.14048
493.71810,0.15080
491.78951,0.16196
489.86093,0.17324
487.93234,0.18548
486.00375,0.19842
484.07517,0.20976
482.14658,0.22150
480.21799,0.23351
478.28941,0.24217
476.36082,0.24669
474.43224,0.24945
472.50365,0.25149
470.57506,0.25124
468.64648,0.24905
466.71789,0.24408
464.78930,0.23210
462.86072,0.21438
460.93213,0.20455
459.00355,0.19715
457.07496,0.18283
455.14637,0.17032
453.21779,0.15792
451.28920,0.14817
449.36061,0.14063
447.43203,0.13397
445.50344,0.12708
443.57485,0.11688
441.64627,0.11028
439.71768,0.10463
437.78910,0.10199
435.86051,0.09928
433.93192,0.09288
432.00334,0.08839
430.07475,0.08500
428.14616,0.08543
426.21758,0.08259
424.28899,0.07478
422.36040,0.06392
420.43182,0.05726
418.50323,0.05744
416.57465,0.04824
414.64606,0.03948
412.71747,0.03861
410.78889,0.03598
408.86030,0.02255
406.93171,0.00968
405.00313,0.00534
403.07454,0.00000
401.14596,0.00073
399.21737,0.00000
