3747.24323,0.00304
3745.31464,0.00793
3743.38605,0.00056
3741.45747,0.00000
3739.52888,0.00661
3737.60030,0.00898
3735.67171,0.00739
3733.74312,0.00529
3731.81454,0.00509
3729.88595,0.00577
3727.95736,0.00896
3726.02878,0.01002
3724.10019,0.00916
3722.17161,0.01118
3720.24302,0.01176
3718.31443,0.01348
3716.38585,0.01560
3714.45726,0.01979
3712.52867,0.02333
3710.60009,0.02074
3708.67150,0.02229
3706.74291,0.02569
3704.81433,0.03045
3702.88574,0.03424
3700.95716,0.03409
3699.02857,0.03621
3697.09998,0.03796
3695.17140,0.03940
3693.24281,0.04037
3691.31422,0.04231
3689.38564,0.04213
3687.45705,0.03800
3685.52846,0.03994
3683.59988,0.04446
3681.67129,0.04840
3679.74271,0.05108
3677.81412,0.05647
3675.88553,0.05906
3673.95695,0.05609
3672.02836,0.06356
3670.09977,0.06742
3668.17119,0.06601
3666.24260,0.07150
3664.31402,0.07670
3662.38543,0.08117
3660.45684,0.08431
3658.52826,0.08884
3656.59967,0.09155
3654.67108,0.09149
3652.74250,0.09800
3650.81391,0.10289
3648.88532,0.10096
3646.95674,0.09975
3645.02815,0.10315
3643.09957,0.10793
3641.17098,0.11076
3639.24239,0.11299
3637.31381,0.11514
3635.38522,0.11794
3633.45663,0.11980
3631.52805,0.12434
3629.59946,0.12753
3627.67088,0.12184
3625.74229,0.12282
3623.81370,0.12730
3621.88512,0.12977
3619.95653,0.13023
3618.02794,0.12572
3616.09936,0.12506
3614.17077,0.12570
3612.24218,0.12406
3610.31360,0.12390
3608.38501,0.12240
3606.45643,0.12055
3604.52784,0.12098
3602.59925,0.12200
3600.67067,0.12157
3598.74208,0.12078
3596.81349,0.12095
3594.88491,0.12068
3592.95632,0.11992
3591.02774,0.12123
3589.09915,0.12282
3587.17056,0.12045
3585.24198,0.11886
3583.31339,0.12052
3581.38480,0.12200
3579.45622,0.12289
3577.52763,0.12338
3575.59904,0.12416
3573.67046,0.12502
3571.74187,0.12605
3569.81329,0.12834
3567.88470,0.12909
3565.95611,0.12735
3564.02753,0.12795
3562.09894,0.13032
3560.17035,0.13146
3558.24177,0.13234
3556.31318,0.13378
3554.38459,0.13525
3552.45601,0.13589
3550.52742,0.13649
3548.59884,0.13813
3546.67025,0.13894
3544.74166,0.13901
3542.81308,0.13985
3540.88449,0.14109
3538.95590,0.14253
3537.02732,0.14364
3535.09873,0.14441
3533.17015,0.14557
3531.24156,0.14691
3529.31297,0.14775
3527.38439,0.14852
3525.45580,0.14976
3523.52721,0.15069
3521.59863,0.15110
3519.67004,0.15200
3517.74145,0.15307
3515.81287,0.15374
3513.88428,0.15479
3511.95570,0.15608
3510.02711,0.15702
3508.09852,0.15753
3506.16994,0.15850
3504.24135,0.15989
3502.31276,0.16028
3500.38418,0.16086
3498.45559,0.16201
3496.52701,0.16292
3494.59842,0.16380
3492.66983,0.16447
3490.74125,0.16522
3488.81266,0.16587
3486.88407,0.16646
3484.95549,0.16737
3483.02690,0.16827
3481.09831,0.16877
3479.16973,0.16929
3477.24114,0.17040
3475.31256,0.17137
3473.38397,0.17192
3471.45538,0.17235
3469.52680,0.17302
3467.59821,0.17375
3465.66962,0.17437
3463.74104,0.17518
3461.81245,0.17547
3459.88386,0.17592
3457.95528,0.17664
3456.02669,0.17718
3454.09811,0.17795
3452.16952,0.17846
3450.24093,0.17921
3448.31235,0.18005
3446.38376,0.18029
3444.45517,0.18061
3442.52659,0.18098
3440.59800,0.18146
3438.66942,0.18218
3436.74083,0.18281
3434.81224,0.18339
3432.88366,0.18388
3430.95507,0.18411
3429.02648,0.18459
3427.09790,0.18506
3425.16931,0.18535
3423.24072,0.18589
3421.31214,0.18614
3419.38355,0.18627
3417.45497,0.18674
3415.52638,0.18729
3413.59779,0.18770
3411.66921,0.18801
3409.74062,0.18821
3407.81203,0.18837
3405.88345,0.18891
3403.95486,0.18919
3402.02628,0.18920
3400.09769,0.18954
3398.16910,0.18984
3396.24052,0.18994
3394.31193,0.18991
3392.38334,0.19011
3390.45476,0.19033
3388.52617,0.19049
3386.59758,0.19071
3384.66900,0.19084
3382.74041,0.19119
3380.81183,0.19156
3378.88324,0.19180
3376.95465,0.19215
3375.02607,0.19253
3373.09748,0.19260
3371.16889,0.19250
3369.24031,0.19258
3367.31172,0.19271
3365.38314,0.19290
3363.45455,0.19310
3361.52596,0.19341
3359.59738,0.19383
3357.66879,0.19396
3355.74020,0.19388
3353.81162,0.19380
3351.88303,0.19388
3349.95444,0.19406
3348.02586,0.19430
3346.09727,0.19440
3344.16869,0.19429
3342.24010,0.19446
3340.31151,0.19469
3338.38293,0.19477
3336.45434,0.19466
3334.52575,0.19445
3332.59717,0.19470
3330.66858,0.19498
3328.73999,0.19494
3326.81141,0.19490
3324.88282,0.19496
3322.95424,0.19496
3321.02565,0.19481
3319.09706,0.19486
3317.16848,0.19490
3315.23989,0.19460
3313.31130,0.19416
3311.38272,0.19386
3309.45413,0.19401
3307.52555,0.19407
3305.59696,0.19392
3303.66837,0.19392
3301.73979,0.19382
3299.81120,0.19367
3297.88261,0.19335
3295.95403,0.19291
3294.02544,0.19277
3292.09685,0.19262
3290.16827,0.19223
3288.23968,0.19182
3286.31110,0.19171
3284.38251,0.19154
3282.45392,0.19092
3280.52534,0.19037
3278.59675,0.18987
3276.66816,0.18930
3274.73958,0.18869
3272.81099,0.18798
3270.88241,0.18743
3268.95382,0.18689
3267.02523,0.18618
3265.09665,0.18551
3263.16806,0.18477
3261.23947,0.18391
3259.31089,0.18306
3257.38230,0.18230
3255.45371,0.18155
3253.52513,0.18074
3251.59654,0.17998
3249.66796,0.17909
3247.73937,0.17827
3245.81078,0.17756
3243.88220,0.17666
3241.95361,0.17584
3240.02502,0.17527
3238.09644,0.17480
3236.16785,0.17403
3234.23927,0.17294
3232.31068,0.17224
3230.38209,0.17216
3228.45351,0.17177
3226.52492,0.17064
3224.59633,0.16966
3222.66775,0.16907
3220.73916,0.16845
3218.81057,0.16772
3216.88199,0.16714
3214.95340,0.16682
3213.02482,0.16628
3211.09623,0.16557
3209.16764,0.16490
3207.23906,0.16412
3205.31047,0.16335
3203.38188,0.16267
3201.45330,0.16204
3199.52471,0.16149
3197.59612,0.16093
3195.66754,0.16015
3193.73895,0.15942
3191.81037,0.15875
3189.88178,0.15789
3187.95319,0.15716
3186.02461,0.15638
3184.09602,0.15547
3182.16743,0.15479
3180.23885,0.15425
3178.31026,0.15378
3176.38168,0.15319
3174.45309,0.15258
3172.52450,0.15191
3170.59592,0.15094
3168.66733,0.15004
3166.73874,0.14935
3164.81016,0.14866
3162.88157,0.14800
3160.95298,0.14736
3159.02440,0.14677
3157.09581,0.14625
3155.16723,0.14563
3153.23864,0.14487
3151.31005,0.14413
3149.38147,0.14352
3147.45288,0.14302
3145.52429,0.14258
3143.59571,0.14199
3141.66712,0.14118
3139.73854,0.14048
3137.80995,0.13996
3135.88136,0.13953
3133.95278,0.13900
3132.02419,0.13840
3130.09560,0.13816
3128.16702,0.13794
3126.23843,0.13750
3124.30984,0.13705
3122.38126,0.13649
3120.45267,0.13596
3118.52409,0.13562
3116.59550,0.13521
3114.66691,0.13474
3112.73833,0.13451
3110.80974,0.13431
3108.88115,0.13399
3106.95257,0.13373
3105.02398,0.13344
3103.09540,0.13300
3101.16681,0.13260
3099.23822,0.13241
3097.30964,0.13231
3095.38105,0.13201
3093.45246,0.13161
3091.52388,0.13127
3089.59529,0.13096
3087.66670,0.13075
3085.73812,0.13048
3083.80953,0.12993
3081.88095,0.12949
3079.95236,0.12926
3078.02377,0.12896
3076.09519,0.12865
3074.16660,0.12843
3072.23801,0.12809
3070.30943,0.12735
3068.38084,0.12671
3066.45225,0.12638
3064.52367,0.12584
3062.59508,0.12535
3060.66650,0.12497
3058.73791,0.12438
3056.80932,0.12390
3054.88074,0.12338
3052.95215,0.12272
3051.02356,0.12227
3049.09498,0.12175
3047.16639,0.12115
3045.23781,0.12075
3043.30922,0.12041
3041.38063,0.12000
3039.45205,0.11953
3037.52346,0.11899
3035.59487,0.11852
3033.66629,0.11833
3031.73770,0.11812
3029.80911,0.11766
3027.88053,0.11736
3025.95194,0.11720
3024.02336,0.11701
3022.09477,0.11687
3020.16618,0.11682
3018.23760,0.11675
3016.30901,0.11663
3014.38042,0.11680
3012.45184,0.11712
3010.52325,0.11727
3008.59467,0.11749
3006.66608,0.11782
3004.73749,0.11811
3002.80891,0.11849
3000.88032,0.11896
2998.95173,0.11936
2997.02315,0.12003
2995.09456,0.12067
2993.16597,0.12120
2991.23739,0.12221
2989.30880,0.12330
2987.38022,0.12451
2985.45163,0.12607
2983.52304,0.12767
2981.59446,0.12937
2979.66587,0.13111
2977.73728,0.13295
2975.80870,0.13469
2973.88011,0.13646
2971.95153,0.13853
2970.02294,0.14049
2968.09435,0.14247
2966.16577,0.14456
2964.23718,0.14670
2962.30859,0.14897
2960.38001,0.15106
2958.45142,0.15287
2956.52283,0.15475
2954.59425,0.15679
2952.66566,0.15863
2950.73708,0.16051
2948.80849,0.16278
2946.87990,0.16529
2944.95132,0.16835
2943.02273,0.17191
2941.09414,0.17579
2939.16556,0.17972
2937.23697,0.18362
2935.30838,0.18776
2933.37980,0.19165
2931.45121,0.19529
2929.52263,0.19883
2927.59404,0.20182
2925.66545,0.20436
2923.73687,0.20642
2921.80828,0.20768
2919.87969,0.20800
2917.95111,0.20588
2916.02252,0.19958
2914.09394,0.19083
2912.16535,0.18273
2910.23676,0.17617
2908.30818,0.17102
2906.37959,0.16704
2904.45100,0.16376
2902.52242,0.16079
2900.59383,0.15810
2898.66524,0.15555
2896.73666,0.15289
2894.80807,0.15043
2892.87949,0.14828
2890.95090,0.14621
2889.02231,0.14417
2887.09373,0.14198
2885.16514,0.13997
2883.23655,0.13852
2881.30797,0.13731
2879.37938,0.13631
2877.45080,0.13577
2875.52221,0.13566
2873.59362,0.13580
2871.66504,0.13613
2869.73645,0.13659
2867.80786,0.13704
2865.87928,0.13794
2863.95069,0.13988
2862.02210,0.14308
2860.09352,0.14756
2858.16493,0.15308
2856.23635,0.15850
2854.30776,0.16222
2852.37917,0.16338
2850.45059,0.16110
2848.52200,0.15465
2846.59341,0.14540
2844.66483,0.13575
2842.73624,0.12729
2840.80766,0.12021
2838.87907,0.11436
2836.95048,0.10961
2835.02190,0.10547
2833.09331,0.10208
2831.16472,0.09938
2829.23614,0.09686
2827.30755,0.09469
2825.37896,0.09294
2823.45038,0.09125
2821.52179,0.08954
2819.59321,0.08794
2817.66462,0.08660
2815.73603,0.08545
2813.80745,0.08443
2811.87886,0.08335
2809.95027,0.08223
2808.02169,0.08129
2806.09310,0.08046
2804.16451,0.07969
2802.23593,0.07890
2800.30734,0.07802
2798.37876,0.07721
2796.45017,0.07636
2794.52158,0.07553
2792.59300,0.07500
2790.66441,0.07442
2788.73582,0.07367
2786.80724,0.07298
2784.87865,0.07244
2782.95007,0.07189
2781.02148,0.07137
2779.09289,0.07101
2777.16431,0.07045
2775.23572,0.06976
2773.30713,0.06930
2771.37855,0.06894
2769.44996,0.06854
2767.52137,0.06812
2765.59279,0.06766
2763.66420,0.06720
2761.73562,0.06680
2759.80703,0.06637
2757.87844,0.06596
2755.94986,0.06569
2754.02127,0.06547
2752.09268,0.06516
2750.16410,0.06481
2748.23551,0.06453
2746.30693,0.06421
2744.37834,0.06385
2742.44975,0.06366
2740.52117,0.06333
2738.59258,0.06290
2736.66399,0.06272
2734.73541,0.06249
2732.80682,0.06217
2730.87823,0.06183
2728.94965,0.06140
2727.02106,0.06103
2725.09248,0.06065
2723.16389,0.06026
2721.23530,0.06002
2719.30672,0.05974
2717.37813,0.05929
2715.44954,0.05883
2713.52096,0.05851
2711.59237,0.05812
2709.66379,0.05766
2707.73520,0.05737
2705.80661,0.05702
2703.87803,0.05662
2701.94944,0.05629
2700.02085,0.05592
2698.09227,0.05562
2696.16368,0.05532
2694.23509,0.05508
2692.30651,0.05497
2690.37792,0.05469
2688.44934,0.05428
2686.52075,0.05390
2684.59216,0.05359
2682.66358,0.05343
2680.73499,0.05319
2678.80640,0.05279
2676.87782,0.05250
2674.94923,0.05226
2673.02064,0.05198
2671.09206,0.05165
2669.16347,0.05122
2667.23489,0.05089
2665.30630,0.05067
2663.37771,0.05039
2661.44913,0.04997
2659.52054,0.04952
2657.59195,0.04918
2655.66337,0.04895
2653.73478,0.04868
2651.80620,0.04834
2649.87761,0.04814
2647.94902,0.04803
2646.02044,0.04766
2644.09185,0.04720
2642.16326,0.04693
2640.23468,0.04673
2638.30609,0.04641
2636.37750,0.04605
2634.44892,0.04577
2632.52033,0.04548
2630.59175,0.04520
2628.66316,0.04496
2626.73457,0.04479
2624.80599,0.04452
2622.87740,0.04411
2620.94881,0.04380
2619.02023,0.04350
2617.09164,0.04322
2615.16306,0.04298
2613.23447,0.04268
2611.30588,0.04246
2609.37730,0.04230
2607.44871,0.04198
2605.52012,0.04162
2603.59154,0.04129
2601.66295,0.04098
2599.73436,0.04076
2597.80578,0.04046
2595.87719,0.04016
2593.94861,0.03993
2592.02002,0.03968
2590.09143,0.03936
2588.16285,0.03903
2586.23426,0.03879
2584.30567,0.03855
2582.37709,0.03841
2580.44850,0.03829
2578.51991,0.03797
2576.59133,0.03765
2574.66274,0.03741
2572.73416,0.03719
2570.80557,0.03690
2568.87698,0.03650
2566.94840,0.03625
2565.01981,0.03612
2563.09122,0.03591
2561.16264,0.03562
2559.23405,0.03540
2557.30547,0.03521
2555.37688,0.03501
2553.44829,0.03483
2551.51971,0.03459
2549.59112,0.03430
2547.66253,0.03404
2545.73395,0.03386
2543.80536,0.03368
2541.87677,0.03343
2539.94819,0.03328
2538.01960,0.03308
2536.09102,0.03280
2534.16243,0.03259
2532.23384,0.03235
2530.30526,0.03205
2528.37667,0.03182
2526.44808,0.03168
2524.51950,0.03145
2522.59091,0.03111
2520.66233,0.03092
2518.73374,0.03078
2516.80515,0.03052
2514.87657,0.03025
2512.94798,0.03005
2511.01939,0.02978
2509.09081,0.02941
2507.16222,0.02911
2505.23363,0.02888
2503.30505,0.02858
2501.37646,0.02828
2499.44788,0.02808
2497.51929,0.02793
2495.59070,0.02780
2493.66212,0.02751
2491.73353,0.02709
2489.80494,0.02675
2487.87636,0.02647
2485.94777,0.02624
2484.01919,0.02605
2482.09060,0.02579
2480.16201,0.02551
2478.23343,0.02527
2476.30484,0.02496
2474.37625,0.02464
2472.44767,0.02438
2470.51908,0.02419
2468.59049,0.02396
2466.66191,0.02366
2464.73332,0.02348
2462.80474,0.02327
2460.87615,0.02287
2458.94756,0.02250
2457.01898,0.02218
2455.09039,0.02190
2453.16180,0.02164
2451.23322,0.02135
2449.30463,0.02112
2447.37604,0.02088
2445.44746,0.02068
2443.51887,0.02042
2441.59029,0.02018
2439.66170,0.02012
2437.73311,0.01984
2435.80453,0.01946
2433.87594,0.01924
2431.94735,0.01896
2430.01877,0.01871
2428.09018,0.01837
2426.16160,0.01791
2424.23301,0.01771
2422.30442,0.01766
2420.37584,0.01752
2418.44725,0.01727
2416.51866,0.01699
2414.59008,0.01671
2412.66149,0.01644
2410.73290,0.01621
2408.80432,0.01592
2406.87573,0.01570
2404.94715,0.01560
2403.01856,0.01545
2401.08997,0.01524
2399.16139,0.01486
2397.23280,0.01453
2395.30421,0.01439
2393.37563,0.01426
2391.44704,0.01403
2389.51846,0.01370
2387.58987,0.01356
2385.66128,0.01357
2383.73270,0.01358
2381.80411,0.01358
2379.87552,0.01345
2377.94694,0.01347
2376.01835,0.01374
2374.08976,0.01407
2372.16118,0.01448
2370.23259,0.01484
2368.30401,0.01514
2366.37542,0.01537
2364.44683,0.01546
2362.51825,0.01550
2360.58966,0.01524
2358.66107,0.01474
2356.73249,0.01415
2354.80390,0.01332
2352.87532,0.01235
2350.94673,0.01145
2349.01814,0.01119
2347.08956,0.01167
2345.16097,0.01217
2343.23238,0.01257
2341.30380,0.01289
2339.37521,0.01300
2337.44662,0.01285
2335.51804,0.01244
2333.58945,0.01204
2331.66087,0.01170
2329.73228,0.01133
2327.80369,0.01099
2325.87511,0.01060
2323.94652,0.01022
2322.01793,0.00988
2320.08935,0.00948
2318.16076,0.00908
2316.23217,0.00882
2314.30359,0.00857
2312.37500,0.00831
2310.44642,0.00808
2308.51783,0.00774
2306.58924,0.00748
2304.66066,0.00735
2302.73207,0.00721
2300.80348,0.00696
2298.87490,0.00670
2296.94631,0.00661
2295.01773,0.00658
2293.08914,0.00646
2291.16055,0.00625
2289.23197,0.00597
2287.30338,0.00571
2285.37479,0.00558
2283.44621,0.00561
2281.51762,0.00549
2279.58903,0.00529
2277.66045,0.00520
2275.73186,0.00514
2273.80328,0.00504
2271.87469,0.00481
2269.94610,0.00467
2268.01752,0.00460
2266.08893,0.00443
2264.16034,0.00432
2262.23176,0.00428
2260.30317,0.00419
2258.37459,0.00411
2256.44600,0.00398
2254.51741,0.00378
2252.58883,0.00370
2250.66024,0.00372
2248.73165,0.00362
2246.80307,0.00343
2244.87448,0.00328
2242.94589,0.00319
2241.01731,0.00310
2239.08872,0.00311
2237.16014,0.00309
2235.23155,0.00295
2233.30296,0.00286
2231.37438,0.00270
2229.44579,0.00244
2227.51720,0.00235
2225.58862,0.00240
2223.66003,0.00240
2221.73145,0.00228
2219.80286,0.00209
2217.87427,0.00190
2215.94569,0.00183
2214.01710,0.00177
2212.08851,0.00156
2210.15993,0.00139
2208.23134,0.00141
2206.30275,0.00147
2204.37417,0.00142
2202.44558,0.00131
2200.51700,0.00124
2198.58841,0.00119
2196.65982,0.00112
2194.73124,0.00108
2192.80265,0.00109
2190.87406,0.00102
2188.94548,0.00090
2187.01689,0.00085
2185.08830,0.00089
2183.15972,0.00096
2181.23113,0.00095
2179.30255,0.00094
2177.37396,0.00092
2175.44537,0.00088
2173.51679,0.00083
2171.58820,0.00067
2169.65961,0.00057
2167.73103,0.00074
2165.80244,0.00093
2163.87386,0.00095
2161.94527,0.00089
2160.01668,0.00081
2158.08810,0.00069
2156.15951,0.00072
2154.23092,0.00087
2152.30234,0.00089
2150.37375,0.00087
2148.44516,0.00086
2146.51658,0.00079
2144.58799,0.00073
2142.65941,0.00080
2140.73082,0.00095
2138.80223,0.00107
2136.87365,0.00101
2134.94506,0.00087
2133.01647,0.00078
2131.08789,0.00073
2129.15930,0.00066
2127.23072,0.00065
2125.30213,0.00071
2123.37354,0.00075
2121.44496,0.00073
2119.51637,0.00064
2117.58778,0.00047
2115.65920,0.00048
2113.73061,0.00064
2111.80202,0.00064
2109.87344,0.00054
2107.94485,0.00050
2106.01627,0.00052
2104.08768,0.00053
2102.15909,0.00043
2100.23051,0.00032
2098.30192,0.00034
2096.37333,0.00047
2094.44475,0.00050
2092.51616,0.00040
2090.58758,0.00039
2088.65899,0.00047
2086.73040,0.00050
2084.80182,0.00044
2082.87323,0.00039
2080.94464,0.00036
2079.01606,0.00030
2077.08747,0.00030
2075.15888,0.00030
2073.23030,0.00029
2071.30171,0.00039
2069.37313,0.00043
2067.44454,0.00042
2065.51595,0.00041
2063.58737,0.00036
2061.65878,0.00041
2059.73019,0.00047
2057.80161,0.00050
2055.87302,0.00059
2053.94443,0.00068
2052.01585,0.00071
2050.08726,0.00062
2048.15868,0.00058
2046.23009,0.00072
2044.30150,0.00088
2042.37292,0.00096
2040.44433,0.00110
2038.51574,0.00133
2036.58716,0.00146
2034.65857,0.00162
2032.72999,0.00184
2030.80140,0.00199
2028.87281,0.00209
2026.94423,0.00204
2025.01564,0.00195
2023.08705,0.00203
2021.15847,0.00222
2019.22988,0.00235
2017.30129,0.00226
2015.37271,0.00210
2013.44412,0.00228
2011.51554,0.00253
2009.58695,0.00262
2007.65836,0.00272
2005.72978,0.00277
2003.80119,0.00289
2001.87260,0.00297
1999.94402,0.00295
1998.01543,0.00293
1996.08685,0.00289
1994.15826,0.00304
1992.22967,0.00290
1990.30109,0.00254
1988.37250,0.00249
1986.44391,0.00241
1984.51533,0.00231
1982.58674,0.00223
1980.65815,0.00213
1978.72957,0.00210
1976.80098,0.00208
1974.87240,0.00206
1972.94381,0.00196
1971.01522,0.00191
1969.08664,0.00190
1967.15805,0.00162
1965.22946,0.00120
1963.30088,0.00110
1961.37229,0.00100
1959.44371,0.00084
1957.51512,0.00086
1955.58653,0.00070
1953.65795,0.00062
1951.72936,0.00062
1949.80077,0.00063
1947.87219,0.00069
1945.94360,0.00072
1944.01501,0.00091
1942.08643,0.00047
1940.15784,0.00000
1938.22926,0.00020
1936.30067,0.00020
1934.37208,0.00016
1932.44350,0.00008
1930.51491,-0.00002
1928.58632,-0.00012
1926.65774,-0.00014
1924.72915,0.00019
1922.80056,0.00000
1920.87198,0.00016
1918.94339,0.00065
1917.01481,0.00015
1915.08622,0.00037
1913.15763,0.00124
1911.22905,0.00166
1909.30046,0.00202
1907.37187,0.00234
1905.44329,0.00291
1903.51470,0.00348
1901.58612,0.00403
1899.65753,0.00463
1897.72894,0.00507
1895.80036,0.00552
1893.87177,0.00569
1891.94318,0.00627
1890.01460,0.00671
1888.08601,0.00651
1886.15742,0.00698
1884.22884,0.00729
1882.30025,0.00743
1880.37167,0.00775
1878.44308,0.00791
1876.51449,0.00812
1874.58591,0.00803
1872.65732,0.00835
1870.72873,0.00887
1868.80015,0.00812
1866.87156,0.00706
1864.94298,0.00711
1863.01439,0.00710
1861.08580,0.00664
1859.15722,0.00612
1857.22863,0.00523
1855.30004,0.00467
1853.37146,0.00397
1851.44287,0.00337
1849.51428,0.00285
1847.58570,0.00258
1845.65711,0.00294
1843.72853,0.00105
1841.79994,0.00000
1839.87135,0.00083
1837.94277,0.00069
1836.01418,0.00040
1834.08559,0.00017
1832.15701,0.00088
1830.22842,0.00063
1828.29984,-0.00027
1826.37125,0.00056
1824.44266,0.00036
1822.51408,0.00040
1820.58549,0.00121
1818.65690,0.00163
1816.72832,0.00212
1814.79973,0.00258
1812.87114,0.00355
1810.94256,0.00411
1809.01397,0.00458
1807.08539,0.00555
1805.15680,0.00675
1803.22821,0.00824
1801.29963,0.00916
1799.37104,0.00992
1797.44245,0.01137
1795.51387,0.01376
1793.58528,0.01593
1791.65669,0.01607
1789.72811,0.01695
1787.79952,0.01995
1785.87094,0.02214
1783.94235,0.02365
1782.01376,0.02568
1780.08518,0.02741
1778.15659,0.02923
1776.22800,0.03160
1774.29942,0.03443
1772.37083,0.03516
1770.44225,0.03523
1768.51366,0.03754
1766.58507,0.03864
1764.65649,0.04084
1762.72790,0.04332
1760.79931,0.04361
1758.87073,0.04604
1756.94214,0.04802
1755.01355,0.04988
1753.08497,0.05350
1751.15638,0.05543
1749.22780,0.05687
1747.29921,0.05998
1745.37062,0.06374
1743.44204,0.06733
1741.51345,0.07125
1739.58486,0.07412
1737.65628,0.07757
1735.72769,0.08308
1733.79911,0.08349
1731.87052,0.08350
1729.94193,0.08774
1728.01335,0.09034
1726.08476,0.09349
1724.15617,0.09619
1722.22759,0.09872
1720.29900,0.10359
1718.37041,0.10644
1716.44183,0.10675
1714.51324,0.10834
1712.58466,0.11166
1710.65607,0.11480
1708.72748,0.11756
1706.79890,0.12013
1704.87031,0.12111
1702.94172,0.12527
1701.01314,0.12864
1699.08455,0.12708
1697.15596,0.13083
1695.22738,0.13259
1693.29879,0.13356
1691.37021,0.13849
1689.44162,0.14036
1687.51303,0.14395
1685.58445,0.14777
1683.65586,0.14529
1681.72727,0.14668
1679.79869,0.15047
1677.87010,0.15428
1675.94152,0.15648
1674.01293,0.15651
1672.08434,0.15937
1670.15576,0.16143
1668.22717,0.16082
1666.29858,0.16277
1664.37000,0.16577
1662.44141,0.16564
1660.51282,0.16566
1658.58424,0.16716
1656.65565,0.16955
1654.72707,0.17286
1652.79848,0.16716
1650.86989,0.16354
1648.94131,0.16820
1647.01272,0.16839
1645.08413,0.16545
1643.15555,0.16613
1641.22696,0.16730
1639.29838,0.16830
1637.36979,0.16982
1635.44120,0.16756
1633.51262,0.16502
1631.58403,0.16681
1629.65544,0.16734
1627.72686,0.16608
1625.79827,0.16502
1623.86968,0.16345
1621.94110,0.16050
1620.01251,0.16008
1618.08393,0.16075
1616.15534,0.15631
1614.22675,0.15411
1612.29817,0.15476
1610.36958,0.15409
1608.44099,0.15311
1606.51241,0.15192
1604.58382,0.15102
1602.65524,0.14955
1600.72665,0.14807
1598.79806,0.14681
1596.86948,0.14566
1594.94089,0.14450
1593.01230,0.14297
1591.08372,0.14165
1589.15513,0.13992
1587.22654,0.13832
1585.29796,0.13646
1583.36937,0.13472
1581.44079,0.13296
1579.51220,0.13207
1577.58361,0.13183
1575.65503,0.12732
1573.72644,0.12494
1571.79785,0.12663
1569.86927,0.12525
1567.94068,0.12291
1566.01209,0.12325
1564.08351,0.12329
1562.15492,0.12536
1560.22634,0.12723
1558.29775,0.12077
1556.36916,0.11982
1554.44058,0.12214
1552.51199,0.12206
1550.58340,0.12277
1548.65482,0.12231
1546.72623,0.12306
1544.79765,0.12368
1542.86906,0.12338
1540.94047,0.12317
1539.01189,0.11787
1537.08330,0.11760
1535.15471,0.12004
1533.22613,0.11849
1531.29754,0.11672
1529.36895,0.11725
1527.44037,0.11715
1525.51178,0.11555
1523.58320,0.11617
1521.65461,0.11522
1519.72602,0.11338
1517.79744,0.11465
1515.86885,0.11418
1513.94026,0.11376
1512.01168,0.11307
1510.08309,0.11182
1508.15451,0.11114
1506.22592,0.10405
1504.29733,0.09842
1502.36875,0.09831
1500.44016,0.09671
1498.51157,0.09371
1496.58299,0.08927
1494.65440,0.08530
1492.72581,0.08470
1490.79723,0.08314
1488.86864,0.07981
1486.94006,0.07800
1485.01147,0.07761
1483.08288,0.07810
1481.15430,0.07859
1479.22571,0.07995
1477.29712,0.08219
1475.36854,0.08472
1473.43995,0.08799
1471.51137,0.09115
1469.58278,0.09643
1467.65419,0.10273
1465.72561,0.10543
1463.79702,0.10549
1461.86843,0.10643
1459.93985,0.10898
1458.01126,0.10988
1456.08267,0.10683
1454.15409,0.10697
1452.22550,0.10836
1450.29692,0.10847
1448.36833,0.10818
1446.43974,0.10697
1444.51116,0.10680
1442.58257,0.10670
1440.65398,0.10664
1438.72540,0.10792
1436.79681,0.10675
1434.86822,0.10493
1432.93964,0.10590
1431.01105,0.10647
1429.08247,0.10584
1427.15388,0.10603
1425.22529,0.10658
1423.29671,0.10637
1421.36812,0.10706
1419.43953,0.10637
1417.51095,0.10393
1415.58236,0.10427
1413.65378,0.10470
1411.72519,0.10437
1409.79660,0.10386
1407.86802,0.10313
1405.93943,0.10257
1404.01084,0.10106
1402.08226,0.10057
1400.15367,0.10009
1398.22508,0.09868
1396.29650,0.09795
1394.36791,0.09639
1392.43933,0.09516
1390.51074,0.09542
1388.58215,0.09499
1386.65357,0.09257
1384.72498,0.09106
1382.79639,0.09231
1380.86781,0.09441
1378.93922,0.09587
1377.01064,0.09647
1375.08205,0.09625
1373.15346,0.09523
1371.22488,0.09457
1369.29629,0.09399
1367.36770,0.09259
1365.43912,0.09167
1363.51053,0.09034
1361.58194,0.08840
1359.65336,0.08731
1357.72477,0.08686
1355.79619,0.08641
1353.86760,0.08571
1351.93901,0.08525
1350.01043,0.08472
1348.08184,0.08425
1346.15325,0.08399
1344.22467,0.08362
1342.29608,0.08360
1340.36750,0.08345
1338.43891,0.08297
1336.51032,0.08260
1334.58174,0.08242
1332.65315,0.08233
1330.72456,0.08219
1328.79598,0.08201
1326.86739,0.08194
1324.93880,0.08199
1323.01022,0.08188
1321.08163,0.08188
1319.15305,0.08192
1317.22446,0.08183
1315.29587,0.08175
1313.36729,0.08155
1311.43870,0.08145
1309.51011,0.08133
1307.58153,0.08111
1305.65294,0.08107
1303.72435,0.08109
1301.79577,0.08109
1299.86718,0.08117
1297.93860,0.08153
1296.01001,0.08205
1294.08142,0.08276
1292.15284,0.08381
1290.22425,0.08494
1288.29566,0.08607
1286.36708,0.08732
1284.43849,0.08872
1282.50991,0.09014
1280.58132,0.09161
1278.65273,0.09318
1276.72415,0.09480
1274.79556,0.09653
1272.86697,0.09835
1270.93839,0.10022
1269.00980,0.10215
1267.08121,0.10450
1265.15263,0.10720
1263.22404,0.10990
1261.29546,0.11274
1259.36687,0.11607
1257.43828,0.12004
1255.50970,0.12411
1253.58111,0.12837
1251.65252,0.13309
1249.72394,0.13793
1247.79535,0.14259
1245.86677,0.14696
1243.93818,0.15116
1242.00959,0.15490
1240.08101,0.15838
1238.15242,0.16180
1236.22383,0.16466
1234.29525,0.16719
1232.36666,0.16960
1230.43807,0.17175
1228.50949,0.17386
1226.58090,0.17607
1224.65232,0.17787
1222.72373,0.17942
1220.79514,0.18102
1218.86656,0.18254
1216.93797,0.18425
1215.00938,0.18595
1213.08080,0.18764
1211.15221,0.18927
1209.22363,0.19094
1207.29504,0.19281
1205.36645,0.19425
1203.43787,0.19547
1201.50928,0.19660
1199.58069,0.19759
1197.65211,0.19867
1195.72352,0.19990
1193.79493,0.20126
1191.86635,0.20225
1189.93776,0.20319
1188.00918,0.20429
1186.08059,0.20551
1184.15200,0.20710
1182.22342,0.20884
1180.29483,0.21052
1178.36624,0.21239
1176.43766,0.21491
1174.50907,0.21765
1172.58048,0.22016
1170.65190,0.22260
1168.72331,0.22523
1166.79473,0.22804
1164.86614,0.23049
1162.93755,0.23256
1161.00897,0.23403
1159.08038,0.23495
1157.15179,0.23585
1155.22321,0.23670
1153.29462,0.23781
1151.36604,0.23935
1149.43745,0.24108
1147.50886,0.24252
1145.58028,0.24406
1143.65169,0.24645
1141.72310,0.24905
1139.79452,0.25154
1137.86593,0.25443
1135.93734,0.25795
1134.00876,0.26147
1132.08017,0.26464
1130.15159,0.26782
1128.22300,0.27158
1126.29441,0.27643
1124.36583,0.28136
1122.43724,0.28596
1120.50865,0.29066
1118.58007,0.29587
1116.65148,0.30197
1114.72290,0.30796
1112.79431,0.31342
1110.86572,0.31906
1108.93714,0.32491
1107.00855,0.33002
1105.07996,0.33392
1103.15138,0.33721
1101.22279,0.33959
1099.29420,0.34103
1097.36562,0.34192
1095.43703,0.34254
1093.50845,0.34283
1091.57986,0.34217
1089.65127,0.34115
1087.72269,0.34035
1085.79410,0.33905
1083.86551,0.33698
1081.93693,0.33529
1080.00834,0.33380
1078.07976,0.33182
1076.15117,0.32955
1074.22258,0.32718
1072.29400,0.32505
1070.36541,0.32278
1068.43682,0.32076
1066.50824,0.31920
1064.57965,0.31740
1062.65106,0.31542
1060.72248,0.31308
1058.79389,0.31051
1056.86531,0.30774
1054.93672,0.30501
1053.00813,0.30260
1051.07955,0.30044
1049.15096,0.29906
1047.22237,0.29806
1045.29379,0.29691
1043.36520,0.29642
1041.43661,0.29704
1039.50803,0.29752
1037.57944,0.29753
1035.65086,0.29739
1033.72227,0.29640
1031.79368,0.29512
1029.86510,0.29344
1027.93651,0.29092
1026.00792,0.28805
1024.07934,0.28455
1022.15075,0.28103
1020.22217,0.27797
1018.29358,0.27482
1016.36499,0.27182
1014.43641,0.26909
1012.50782,0.26599
1010.57923,0.26279
1008.65065,0.25965
1006.72206,0.25594
1004.79347,0.25212
1002.86489,0.24832
1000.93630,0.24409
999.00772,0.23961
997.07913,0.23500
995.15054,0.23049
993.22196,0.22606
991.29337,0.22122
989.36478,0.21596
987.43620,0.21045
985.50761,0.20462
983.57903,0.19853
981.65044,0.19179
979.72185,0.18459
977.79327,0.17770
975.86468,0.17068
973.93609,0.16352
972.00751,0.15623
970.07892,0.14864
968.15033,0.14149
966.22175,0.13507
964.29316,0.12919
962.36458,0.12364
960.43599,0.11854
958.50740,0.11418
956.57882,0.11022
954.65023,0.10648
952.72164,0.10325
950.79306,0.10059
948.86447,0.09819
946.93589,0.09612
945.00730,0.09456
943.07871,0.09353
941.15013,0.09281
939.22154,0.09182
937.29295,0.09081
935.36437,0.08976
933.43578,0.08850
931.50719,0.08730
929.57861,0.08608
927.65002,0.08516
925.72144,0.08452
923.79285,0.08382
921.86426,0.08333
919.93568,0.08299
918.00709,0.08252
916.07850,0.08207
914.14992,0.08157
912.22133,0.08025
910.29274,0.07784
908.36416,0.07460
906.43557,0.07068
904.50699,0.06626
902.57840,0.06169
900.64981,0.05709
898.72123,0.05249
896.79264,0.04833
894.86405,0.04469
892.93547,0.04133
891.00688,0.03822
889.07830,0.03527
887.14971,0.03265
885.22112,0.03000
883.29254,0.02719
881.36395,0.02470
879.43536,0.02251
877.50678,0.02025
875.57819,0.01769
873.64960,0.01525
871.72102,0.01292
869.79243,0.01041
867.86385,0.00808
865.93526,0.00601
864.00667,0.00440
862.07809,0.00319
860.14950,0.00194
858.22091,0.00108
856.29233,0.00055
854.36374,0.00000
852.43516,0.00009
850.50657,0.00048
848.57798,0.00061
846.64940,0.00120
844.72081,0.00256
842.79222,0.00467
840.86364,0.00688
838.93505,0.00936
837.00646,0.01285
835.07788,0.01618
833.14929,0.01853
831.22071,0.02019
829.29212,0.02172
827.36353,0.02299
825.43495,0.02414
823.50636,0.02549
821.57777,0.02598
819.64919,0.02625
817.72060,0.02730
815.79201,0.02884
813.86343,0.03074
811.93484,0.03329
810.00626,0.03696
808.07767,0.04115
806.14908,0.04605
804.22050,0.05135
802.29191,0.05519
800.36332,0.05691
798.43474,0.05620
796.50615,0.05352
794.57757,0.04976
792.64898,0.04595
790.72039,0.04289
788.79181,0.04073
786.86322,0.03960
784.93463,0.03934
783.00605,0.03990
781.07746,0.04005
779.14887,0.03868
777.22029,0.03578
775.29170,0.03146
773.36312,0.02671
771.43453,0.02228
769.50594,0.01890
767.57736,0.01703
765.64877,0.01609
763.72018,0.01556
761.79160,0.01524
759.86301,0.01576
757.93443,0.01656
756.00584,0.01628
754.07725,0.01575
752.14867,0.01561
750.22008,0.01495
748.29149,0.01347
746.36291,0.01203
744.43432,0.01084
742.50573,0.00938
740.57715,0.00786
738.64856,0.00629
736.71998,0.00454
734.79139,0.00306
732.86280,0.00221
730.93422,0.00201
729.00563,0.00204
727.07704,0.00214
725.14846,0.00272
723.21987,0.00306
721.29129,0.00285
719.36270,0.00249
717.43411,0.00146
715.50553,0.00038
713.57694,0.00000
711.64835,-0.00005
709.71977,0.00041
707.79118,0.00136
705.86259,0.00269
703.93401,0.00434
702.00542,0.00617
700.07684,0.00889
698.14825,0.01313
696.21966,0.01694
694.29108,0.01691
692.36249,0.01352
690.43390,0.01013
688.50532,0.00803
686.57673,0.00676
684.64814,0.00589
682.71956,0.00501
680.79097,0.00382
678.86239,0.00303
676.93380,0.00289
675.00521,0.00277
673.07663,0.00224
671.14804,0.00171
669.21945,0.00207
667.29087,0.00177
665.36228,0.00031
663.43370,0.00000
661.50511,0.00030
659.57652,0.00013
657.64794,-0.00022
655.71935,-0.00038
653.79076,0.00005
651.86218,0.00118
649.93359,0.00224
648.00500,0.00212
646.07642,0.00148
644.14783,0.00146
642.21925,0.00192
640.29066,0.00233
638.36207,0.00249
636.43349,0.00297
634.50490,0.00367
632.57631,0.00408
630.64773,0.00465
628.71914,0.00545
626.79056,0.00620
624.86197,0.00689
622.93338,0.00719
621.00480,0.00766
619.07621,0.00869
617.14762,0.00903
615.21904,0.00895
613.29045,0.00928
611.36186,0.00997
609.43328,0.01115
607.50469,0.01206
605.57611,0.01244
603.64752,0.01298
601.71893,0.01462
599.79035,0.01698
597.86176,0.01861
595.93317,0.02009
594.00459,0.02219
592.07600,0.02449
590.14742,0.02703
588.21883,0.02983
586.29024,0.03257
584.36166,0.03582
582.43307,0.03955
580.50448,0.04249
578.57590,0.04480
576.64731,0.04739
574.71872,0.05172
572.79014,0.05730
570.86155,0.06134
568.93297,0.06370
567.00438,0.06593
565.07579,0.06935
563.14721,0.07427
561.21862,0.07968
559.29003,0.08426
557.36145,0.08735
555.43286,0.08987
553.50427,0.09321
551.57569,0.09718
549.64710,0.10016
547.71852,0.10295
545.78993,0.10703
543.86134,0.11153
541.93276,0.11609
540.00417,0.12093
538.07558,0.12500
536.14700,0.12805
534.21841,0.13222
532.28983,0.13604
530.36124,0.13725
528.43265,0.13694
526.50407,0.13430
524.57548,0.13235
522.64689,0.13296
520.71831,0.13183
518.78972,0.12795
516.86113,0.12296
514.93255,0.11927
513.00396,0.11573
511.07538,0.11157
509.14679,0.11004
507.21820,0.10907
505.28962,0.10813
503.36103,0.10989
501.43244,0.11183
499.50386,0.11450
497.57527,0.12048
495.64669,0.12635
493.71810,0.13100
491.78951,0.13916
489.86093,0.15045
487.93234,0.15943
486.00375,0.16834
484.07517,0.17852
482.14658,0.18657
480.21799,0.19621
478.28941,0.20543
476.36082,0.21053
474.43224,0.21449
472.50365,0.21542
470.57506,0.21209
468.64648,0.20414
466.71789,0.19580
464.78930,0.19169
462.86072,0.18485
460.93213,0.17439
459.00355,0.16358
457.07496,0.15191
455.14637,0.14070
453.21779,0.13101
451.28920,0.12369
449.36061,0.11693
447.43203,0.11036
445.50344,0.10197
443.57485,0.09071
441.64627,0.08390
439.71768,0.08263
437.78910,0.08206
435.86051,0.08117
433.93192,0.07861
432.00334,0.07640
430.07475,0.07475
428.14616,0.07051
426.21758,0.06589
424.28899,0.05893
422.36040,0.05175
420.43182,0.04623
418.50323,0.03880
416.57465,0.03668
414.64606,0.03316
412.71747,0.02488
410.78889,0.01563
408.86030,0.00798
406.93171,0.00860
405.00313,0.00627
403.07454,0.00280
401.14596,0.00499
399.21737,0.00000
