3747.24323,0.00059
3745.31464,0.00248
3743.38605,0.00000
3741.45747,0.00054
3739.52888,0.00334
3737.60030,0.00431
3735.67171,0.00400
3733.74312,0.00358
3731.81454,0.00443
3729.88595,0.00564
3727.95736,0.00747
3726.02878,0.00835
3724.10019,0.00886
3722.17161,0.01086
3720.24302,0.01228
3718.31443,0.01466
3716.38585,0.01734
3714.45726,0.02058
3712.52867,0.02363
3710.60009,0.02509
3708.67150,0.02882
3706.74291,0.03290
3704.81433,0.03723
3702.88574,0.04091
3700.95716,0.04298
3699.02857,0.04555
3697.09998,0.04702
3695.17140,0.04809
3693.24281,0.04837
3691.31422,0.04876
3689.38564,0.04887
3687.45705,0.04869
3685.52846,0.05152
3683.59988,0.05518
3681.67129,0.05894
3679.74271,0.06218
3677.81412,0.06635
3675.88553,0.06972
3673.95695,0.07248
3672.02836,0.07876
3670.09977,0.08301
3668.17119,0.08692
3666.24260,0.09317
3664.31402,0.09864
3662.38543,0.10362
3660.45684,0.10806
3658.52826,0.11254
3656.59967,0.11603
3654.67108,0.11915
3652.74250,0.12383
3650.81391,0.12724
3648.88532,0.12861
3646.95674,0.13095
3645.02815,0.13532
3643.09957,0.13945
3641.17098,0.14242
3639.24239,0.14531
3637.31381,0.14846
3635.38522,0.15171
3633.45663,0.15440
3631.52805,0.15763
3629.59946,0.15961
3627.67088,0.15913
3625.74229,0.16146
3623.81370,0.16419
3621.88512,0.16540
3619.95653,0.16470
3618.02794,0.16147
3616.09936,0.15991
3614.17077,0.15899
3612.24218,0.15726
3610.31360,0.15595
3608.38501,0.15424
3606.45643,0.15239
3604.52784,0.15165
3602.59925,0.15118
3600.67067,0.15002
3598.74208,0.14898
3596.81349,0.14810
3594.88491,0.14721
3592.95632,0.14647
3591.02774,0.14641
3589.09915,0.14623
3587.17056,0.14491
3585.24198,0.14472
3583.31339,0.14575
3581.38480,0.14643
3579.45622,0.14668
3577.52763,0.14685
3575.59904,0.14729
3573.67046,0.14793
3571.74187,0.14868
3569.81329,0.14944
3567.88470,0.14971
3565.95611,0.14971
3564.02753,0.15088
3562.09894,0.15252
3560.17035,0.15342
3558.24177,0.15429
3556.31318,0.15547
3554.38459,0.15663
3552.45601,0.15713
3550.52742,0.15760
3548.59884,0.15891
3546.67025,0.15990
3544.74166,0.16058
3542.81308,0.16167
3540.88449,0.16276
3538.95590,0.16371
3537.02732,0.16475
3535.09873,0.16585
3533.17015,0.16677
3531.24156,0.16756
3529.31297,0.16825
3527.38439,0.16927
3525.45580,0.17037
3523.52721,0.17104
3521.59863,0.17189
3519.67004,0.17295
3517.74145,0.17401
3515.81287,0.17486
3513.88428,0.17563
3511.95570,0.17674
3510.02711,0.17785
3508.09852,0.17879
3506.16994,0.17986
3504.24135,0.18083
3502.31276,0.18136
3500.38418,0.18230
3498.45559,0.18354
3496.52701,0.18427
3494.59842,0.18507
3492.66983,0.18597
3490.74125,0.18684
3488.81266,0.18785
3486.88407,0.18879
3484.95549,0.18957
3483.02690,0.19046
3481.09831,0.19136
3479.16973,0.19180
3477.24114,0.19259
3475.31256,0.19359
3473.38397,0.19403
3471.45538,0.19435
3469.52680,0.19503
3467.59821,0.19598
3465.66962,0.19664
3463.74104,0.19737
3461.81245,0.19819
3459.88386,0.19875
3457.95528,0.19964
3456.02669,0.20033
3454.09811,0.20081
3452.16952,0.20153
3450.24093,0.20211
3448.31235,0.20248
3446.38376,0.20291
3444.45517,0.20350
3442.52659,0.20417
3440.59800,0.20488
3438.66942,0.20559
3436.74083,0.20616
3434.81224,0.20646
3432.88366,0.20666
3430.95507,0.20713
3429.02648,0.20781
3427.09790,0.20834
3425.16931,0.20873
3423.24072,0.20900
3421.31214,0.20932
3419.38355,0.20984
3417.45497,0.21024
3415.52638,0.21065
3413.59779,0.21100
3411.66921,0.21117
3409.74062,0.21162
3407.81203,0.21204
3405.88345,0.21238
3403.95486,0.21264
3402.02628,0.21291
3400.09769,0.21323
3398.16910,0.21305
3396.24052,0.21316
3394.31193,0.21370
3392.38334,0.21382
3390.45476,0.21420
3388.52617,0.21487
3386.59758,0.21505
3384.66900,0.21496
3382.74041,0.21497
3380.81183,0.21517
3378.88324,0.21537
3376.95465,0.21542
3375.02607,0.21565
3373.09748,0.21596
3371.16889,0.21614
3369.24031,0.21618
3367.31172,0.21633
3365.38314,0.21660
3363.45455,0.21669
3361.52596,0.21685
3359.59738,0.21710
3357.66879,0.21730
3355.74020,0.21741
3353.81162,0.21753
3351.88303,0.21765
3349.95444,0.21743
3348.02586,0.21734
3346.09727,0.21759
3344.16869,0.21782
3342.24010,0.21792
3340.31151,0.21786
3338.38293,0.21779
3336.45434,0.21783
3334.52575,0.21795
3332.59717,0.21785
3330.66858,0.21781
3328.73999,0.21807
3326.81141,0.21797
3324.88282,0.21773
3322.95424,0.21777
3321.02565,0.21793
3319.09706,0.21790
3317.16848,0.21770
3315.23989,0.21770
3313.31130,0.21764
3311.38272,0.21744
3309.45413,0.21737
3307.52555,0.21725
3305.59696,0.21711
3303.66837,0.21699
3301.73979,0.21681
3299.81120,0.21661
3297.88261,0.21647
3295.95403,0.21643
3294.02544,0.21609
3292.09685,0.21549
3290.16827,0.21524
3288.23968,0.21527
3286.31110,0.21513
3284.38251,0.21480
3282.45392,0.21436
3280.52534,0.21373
3278.59675,0.21285
3276.66816,0.21199
3274.73958,0.21144
3272.81099,0.21081
3270.88241,0.20981
3268.95382,0.20884
3267.02523,0.20806
3265.09665,0.20746
3263.16806,0.20677
3261.23947,0.20579
3259.31089,0.20484
3257.38230,0.20371
3255.45371,0.20242
3253.52513,0.20144
3251.59654,0.20065
3249.66796,0.19972
3247.73937,0.19883
3245.81078,0.19823
3243.88220,0.19735
3241.95361,0.19624
3240.02502,0.19545
3238.09644,0.19471
3236.16785,0.19388
3234.23927,0.19308
3232.31068,0.19222
3230.38209,0.19136
3228.45351,0.19061
3226.52492,0.18990
3224.59633,0.18922
3222.66775,0.18848
3220.73916,0.18754
3218.81057,0.18679
3216.88199,0.18630
3214.95340,0.18567
3213.02482,0.18487
3211.09623,0.18409
3209.16764,0.18329
3207.23906,0.18247
3205.31047,0.18167
3203.38188,0.18073
3201.45330,0.17988
3199.52471,0.17938
3197.59612,0.17887
3195.66754,0.17792
3193.73895,0.17681
3191.81037,0.17586
3189.88178,0.17492
3187.95319,0.17402
3186.02461,0.17315
3184.09602,0.17231
3182.16743,0.17163
3180.23885,0.17103
3178.31026,0.17036
3176.38168,0.16948
3174.45309,0.16858
3172.52450,0.16777
3170.59592,0.16695
3168.66733,0.16607
3166.73874,0.16537
3164.81016,0.16490
3162.88157,0.16405
3160.95298,0.16293
3159.02440,0.16226
3157.09581,0.16164
3155.16723,0.16079
3153.23864,0.16015
3151.31005,0.15952
3149.38147,0.15878
3147.45288,0.15809
3145.52429,0.15736
3143.59571,0.15670
3141.66712,0.15590
3139.73854,0.15525
3137.80995,0.15495
3135.88136,0.15454
3133.95278,0.15406
3132.02419,0.15340
3130.09560,0.15281
3128.16702,0.15235
3126.23843,0.15182
3124.30984,0.15145
3122.38126,0.15106
3120.45267,0.15061
3118.52409,0.14997
3116.59550,0.14922
3114.66691,0.14883
3112.73833,0.14871
3110.80974,0.14856
3108.88115,0.14821
3106.95257,0.14783
3105.02398,0.14756
3103.09540,0.14729
3101.16681,0.14705
3099.23822,0.14684
3097.30964,0.14655
3095.38105,0.14601
3093.45246,0.14550
3091.52388,0.14526
3089.59529,0.14502
3087.66670,0.14468
3085.73812,0.14437
3083.80953,0.14407
3081.88095,0.14365
3079.95236,0.14327
3078.02377,0.14300
3076.09519,0.14244
3074.16660,0.14185
3072.23801,0.14161
3070.30943,0.14126
3068.38084,0.14069
3066.45225,0.14021
3064.52367,0.13968
3062.59508,0.13911
3060.66650,0.13861
3058.73791,0.13798
3056.80932,0.13722
3054.88074,0.13660
3052.95215,0.13605
3051.02356,0.13545
3049.09498,0.13479
3047.16639,0.13415
3045.23781,0.13357
3043.30922,0.13307
3041.38063,0.13268
3039.45205,0.13225
3037.52346,0.13176
3035.59487,0.13129
3033.66629,0.13071
3031.73770,0.13020
3029.80911,0.12985
3027.88053,0.12945
3025.95194,0.12910
3024.02336,0.12885
3022.09477,0.12861
3020.16618,0.12824
3018.23760,0.12788
3016.30901,0.12775
3014.38042,0.12765
3012.45184,0.12760
3010.52325,0.12775
3008.59467,0.12796
3006.66608,0.12825
3004.73749,0.12874
3002.80891,0.12928
3000.88032,0.12985
2998.95173,0.13055
2997.02315,0.13135
2995.09456,0.13205
2993.16597,0.13275
2991.23739,0.13391
2989.30880,0.13543
2987.38022,0.13692
2985.45163,0.13843
2983.52304,0.14015
2981.59446,0.14198
2979.66587,0.14383
2977.73728,0.14588
2975.80870,0.14782
2973.88011,0.14970
2971.95153,0.15191
2970.02294,0.15426
2968.09435,0.15661
2966.16577,0.15884
2964.23718,0.16104
2962.30859,0.16331
2960.38001,0.16549
2958.45142,0.16771
2956.52283,0.16988
2954.59425,0.17185
2952.66566,0.17365
2950.73708,0.17565
2948.80849,0.17804
2946.87990,0.18070
2944.95132,0.18384
2943.02273,0.18768
2941.09414,0.19199
2939.16556,0.19653
2937.23697,0.20139
2935.30838,0.20648
2933.37980,0.21148
2931.45121,0.21615
2929.52263,0.22033
2927.59404,0.22405
2925.66545,0.22707
2923.73687,0.22924
2921.80828,0.23022
2919.87969,0.22971
2917.95111,0.22673
2916.02252,0.21968
2914.09394,0.21001
2912.16535,0.20079
2910.23676,0.19321
2908.30818,0.18707
2906.37959,0.18210
2904.45100,0.17821
2902.52242,0.17503
2900.59383,0.17203
2898.66524,0.16905
2896.73666,0.16622
2894.80807,0.16347
2892.87949,0.16091
2890.95090,0.15852
2889.02231,0.15597
2887.09373,0.15352
2885.16514,0.15141
2883.23655,0.14977
2881.30797,0.14864
2879.37938,0.14775
2877.45080,0.14715
2875.52221,0.14701
2873.59362,0.14730
2871.66504,0.14758
2869.73645,0.14766
2867.80786,0.14802
2865.87928,0.14918
2863.95069,0.15141
2862.02210,0.15480
2860.09352,0.15967
2858.16493,0.16567
2856.23635,0.17193
2854.30776,0.17707
2852.37917,0.17946
2850.45059,0.17770
2848.52200,0.17055
2846.59341,0.15946
2844.66483,0.14787
2842.73624,0.13771
2840.80766,0.12938
2838.87907,0.12283
2836.95048,0.11763
2835.02190,0.11307
2833.09331,0.10924
2831.16472,0.10627
2829.23614,0.10379
2827.30755,0.10163
2825.37896,0.09967
2823.45038,0.09790
2821.52179,0.09619
2819.59321,0.09466
2817.66462,0.09336
2815.73603,0.09202
2813.80745,0.09080
2811.87886,0.08971
2809.95027,0.08857
2808.02169,0.08737
2806.09310,0.08620
2804.16451,0.08541
2802.23593,0.08476
2800.30734,0.08385
2798.37876,0.08294
2796.45017,0.08220
2794.52158,0.08153
2792.59300,0.08083
2790.66441,0.07991
2788.73582,0.07909
2786.80724,0.07853
2784.87865,0.07794
2782.95007,0.07728
2781.02148,0.07664
2779.09289,0.07602
2777.16431,0.07538
2775.23572,0.07482
2773.30713,0.07443
2771.37855,0.07406
2769.44996,0.07364
2767.52137,0.07309
2765.59279,0.07250
2763.66420,0.07200
2761.73562,0.07166
2759.80703,0.07145
2757.87844,0.07104
2755.94986,0.07059
2754.02127,0.07025
2752.09268,0.06983
2750.16410,0.06947
2748.23551,0.06924
2746.30693,0.06897
2744.37834,0.06856
2742.44975,0.06823
2740.52117,0.06791
2738.59258,0.06751
2736.66399,0.06726
2734.73541,0.06695
2732.80682,0.06648
2730.87823,0.06613
2728.94965,0.06581
2727.02106,0.06545
2725.09248,0.06510
2723.16389,0.06459
2721.23530,0.06408
2719.30672,0.06382
2717.37813,0.06353
2715.44954,0.06297
2713.52096,0.06241
2711.59237,0.06209
2709.66379,0.06171
2707.73520,0.06103
2705.80661,0.06053
2703.87803,0.06033
2701.94944,0.06003
2700.02085,0.05958
2698.09227,0.05923
2696.16368,0.05906
2694.23509,0.05881
2692.30651,0.05850
2690.37792,0.05820
2688.44934,0.05782
2686.52075,0.05747
2684.59216,0.05723
2682.66358,0.05700
2680.73499,0.05665
2678.80640,0.05632
2676.87782,0.05611
2674.94923,0.05582
2673.02064,0.05544
2671.09206,0.05515
2669.16347,0.05480
2667.23489,0.05428
2665.30630,0.05385
2663.37771,0.05354
2661.44913,0.05316
2659.52054,0.05295
2657.59195,0.05282
2655.66337,0.05236
2653.73478,0.05184
2651.80620,0.05162
2649.87761,0.05151
2647.94902,0.05126
2646.02044,0.05082
2644.09185,0.05034
2642.16326,0.04995
2640.23468,0.04961
2638.30609,0.04926
2636.37750,0.04895
2634.44892,0.04878
2632.52033,0.04857
2630.59175,0.04817
2628.66316,0.04781
2626.73457,0.04750
2624.80599,0.04706
2622.87740,0.04668
2620.94881,0.04646
2619.02023,0.04622
2617.09164,0.04584
2615.16306,0.04548
2613.23447,0.04513
2611.30588,0.04479
2609.37730,0.04443
2607.44871,0.04405
2605.52012,0.04381
2603.59154,0.04360
2601.66295,0.04334
2599.73436,0.04302
2597.80578,0.04262
2595.87719,0.04227
2593.94861,0.04201
2592.02002,0.04173
2590.09143,0.04131
2588.16285,0.04098
2586.23426,0.04076
2584.30567,0.04043
2582.37709,0.03996
2580.44850,0.03957
2578.51991,0.03935
2576.59133,0.03911
2574.66274,0.03885
2572.73416,0.03856
2570.80557,0.03824
2568.87698,0.03790
2566.94840,0.03752
2565.01981,0.03737
2563.09122,0.03729
2561.16264,0.03707
2559.23405,0.03679
2557.30547,0.03639
2555.37688,0.03614
2553.44829,0.03595
2551.51971,0.03568
2549.59112,0.03543
2547.66253,0.03516
2545.73395,0.03496
2543.80536,0.03475
2541.87677,0.03442
2539.94819,0.03409
2538.01960,0.03393
2536.09102,0.03377
2534.16243,0.03357
2532.23384,0.03338
2530.30526,0.03313
2528.37667,0.03292
2526.44808,0.03272
2524.51950,0.03253
2522.59091,0.03222
2520.66233,0.03181
2518.73374,0.03151
2516.80515,0.03120
2514.87657,0.03098
2512.94798,0.03077
2511.01939,0.03049
2509.09081,0.03029
2507.16222,0.03008
2505.23363,0.02978
2503.30505,0.02942
2501.37646,0.02915
2499.44788,0.02888
2497.51929,0.02863
2495.59070,0.02847
2493.66212,0.02827
2491.73353,0.02804
2489.80494,0.02766
2487.87636,0.02733
2485.94777,0.02709
2484.01919,0.02673
2482.09060,0.02639
2480.16201,0.02611
2478.23343,0.02591
2476.30484,0.02572
2474.37625,0.02548
2472.44767,0.02521
2470.51908,0.02479
2468.59049,0.02444
2466.66191,0.02416
2464.73332,0.02391
2462.80474,0.02372
2460.87615,0.02339
2458.94756,0.02314
2457.01898,0.02295
2455.09039,0.02264
2453.16180,0.02226
2451.23322,0.02187
2449.30463,0.02159
2447.37604,0.02139
2445.44746,0.02109
2443.51887,0.02066
2441.59029,0.02033
2439.66170,0.02021
2437.73311,0.02008
2435.80453,0.01983
2433.87594,0.01954
2431.94735,0.01933
2430.01877,0.01908
2428.09018,0.01878
2426.16160,0.01850
2424.23301,0.01821
2422.30442,0.01791
2420.37584,0.01771
2418.44725,0.01746
2416.51866,0.01714
2414.59008,0.01686
2412.66149,0.01653
2410.73290,0.01617
2408.80432,0.01594
2406.87573,0.01575
2404.94715,0.01548
2403.01856,0.01518
2401.08997,0.01498
2399.16139,0.01480
2397.23280,0.01454
2395.30421,0.01423
2393.37563,0.01396
2391.44704,0.01372
2389.51846,0.01341
2387.58987,0.01315
2385.66128,0.01299
2383.73270,0.01276
2381.80411,0.01250
2379.87552,0.01224
2377.94694,0.01205
2376.01835,0.01187
2374.08976,0.01151
2372.16118,0.01111
2370.23259,0.01081
2368.30401,0.01057
2366.37542,0.01025
2364.44683,0.00987
2362.51825,0.00960
2360.58966,0.00924
2358.66107,0.00897
2356.73249,0.00893
2354.80390,0.00888
2352.87532,0.00886
2350.94673,0.00900
2349.01814,0.00913
2347.08956,0.00904
2345.16097,0.00875
2343.23238,0.00845
2341.30380,0.00822
2339.37521,0.00807
2337.44662,0.00790
2335.51804,0.00773
2333.58945,0.00758
2331.66087,0.00727
2329.73228,0.00697
2327.80369,0.00697
2325.87511,0.00697
2323.94652,0.00681
2322.01793,0.00671
2320.08935,0.00671
2318.16076,0.00667
2316.23217,0.00655
2314.30359,0.00637
2312.37500,0.00618
2310.44642,0.00602
2308.51783,0.00591
2306.58924,0.00593
2304.66066,0.00594
2302.73207,0.00587
2300.80348,0.00576
2298.87490,0.00559
2296.94631,0.00540
2295.01773,0.00518
2293.08914,0.00495
2291.16055,0.00486
2289.23197,0.00488
2287.30338,0.00486
2285.37479,0.00472
2283.44621,0.00451
2281.51762,0.00434
2279.58903,0.00423
2277.66045,0.00420
2275.73186,0.00411
2273.80328,0.00393
2271.87469,0.00382
2269.94610,0.00381
2268.01752,0.00376
2266.08893,0.00364
2264.16034,0.00353
2262.23176,0.00337
2260.30317,0.00328
2258.37459,0.00330
2256.44600,0.00327
2254.51741,0.00315
2252.58883,0.00298
2250.66024,0.00281
2248.73165,0.00269
2246.80307,0.00258
2244.87448,0.00245
2242.94589,0.00236
2241.01731,0.00236
2239.08872,0.00238
2237.16014,0.00234
2235.23155,0.00221
2233.30296,0.00208
2231.37438,0.00205
2229.44579,0.00197
2227.51720,0.00183
2225.58862,0.00170
2223.66003,0.00158
2221.73145,0.00161
2219.80286,0.00155
2217.87427,0.00130
2215.94569,0.00115
2214.01710,0.00105
2212.08851,0.00103
2210.15993,0.00112
2208.23134,0.00108
2206.30275,0.00092
2204.37417,0.00082
2202.44558,0.00075
2200.51700,0.00066
2198.58841,0.00061
2196.65982,0.00051
2194.73124,0.00044
2192.80265,0.00050
2190.87406,0.00048
2188.94548,0.00040
2187.01689,0.00036
2185.08830,0.00035
2183.15972,0.00035
2181.23113,0.00030
2179.30255,0.00028
2177.37396,0.00021
2175.44537,0.00027
2173.51679,0.00030
2171.58820,0.00007
2169.65961,0.00000
2167.73103,0.00023
2165.80244,0.00049
2163.87386,0.00049
2161.94527,0.00030
2160.01668,0.00027
2158.08810,0.00038
2156.15951,0.00041
2154.23092,0.00033
2152.30234,0.00021
2150.37375,0.00023
2148.44516,0.00038
2146.51658,0.00044
2144.58799,0.00045
2142.65941,0.00055
2140.73082,0.00052
2138.80223,0.00044
2136.87365,0.00043
2134.94506,0.00042
2133.01647,0.00044
2131.08789,0.00041
2129.15930,0.00029
2127.23072,0.00021
2125.30213,0.00024
2123.37354,0.00023
2121.44496,0.00023
2119.51637,0.00021
2117.58778,0.00015
2115.65920,0.00021
2113.73061,0.00019
2111.80202,0.00012
2109.87344,0.00011
2107.94485,0.00003
2106.01627,0.00000
2104.08768,0.00002
2102.15909,0.00008
2100.23051,0.00015
2098.30192,0.00014
2096.37333,0.00013
2094.44475,0.00011
2092.51616,0.00002
2090.58758,-0.00001
2088.65899,0.00000
2086.73040,0.00003
2084.80182,0.00007
2082.87323,0.00003
2080.94464,0.00000
2079.01606,0.00002
2077.08747,0.00004
2075.15888,0.00009
2073.23030,0.00006
2071.30171,-0.00005
2069.37313,-0.00018
2067.44454,-0.00028
2065.51595,-0.00027
2063.58737,-0.00018
2061.65878,-0.00007
2059.73019,0.00000
2057.80161,0.00003
2055.87302,0.00007
2053.94443,0.00016
2052.01585,0.00016
2050.08726,0.00014
2048.15868,0.00019
2046.23009,0.00031
2044.30150,0.00053
2042.37292,0.00066
2040.44433,0.00078
2038.51574,0.00103
2036.58716,0.00128
2034.65857,0.00162
2032.72999,0.00195
2030.80140,0.00213
2028.87281,0.00212
2026.94423,0.00211
2025.01564,0.00216
2023.08705,0.00224
2021.15847,0.00231
2019.22988,0.00226
2017.30129,0.00221
2015.37271,0.00233
2013.44412,0.00261
2011.51554,0.00292
2009.58695,0.00319
2007.65836,0.00338
2005.72978,0.00341
2003.80119,0.00346
2001.87260,0.00355
1999.94402,0.00367
1998.01543,0.00370
1996.08685,0.00363
1994.15826,0.00364
1992.22967,0.00351
1990.30109,0.00329
1988.37250,0.00318
1986.44391,0.00306
1984.51533,0.00300
1982.58674,0.00293
1980.65815,0.00284
1978.72957,0.00274
1976.80098,0.00260
1974.87240,0.00246
1972.94381,0.00237
1971.01522,0.00230
1969.08664,0.00213
1967.15805,0.00178
1965.22946,0.00146
1963.30088,0.00143
1961.37229,0.00128
1959.44371,0.00097
1957.51512,0.00077
1955.58653,0.00071
1953.65795,0.00073
1951.72936,0.00068
1949.80077,0.00056
1947.87219,0.00037
1945.94360,0.00037
1944.01501,0.00034
1942.08643,0.00000
1940.15784,-0.00004
1938.22926,0.00013
1936.30067,0.00011
1934.37208,0.00002
1932.44350,-0.00009
1930.51491,-0.00009
1928.58632,-0.00009
1926.65774,-0.00006
1924.72915,0.00000
1922.80056,-0.00012
1920.87198,0.00012
1918.94339,0.00036
1917.01481,0.00026
1915.08622,0.00067
1913.15763,0.00132
1911.22905,0.00177
1909.30046,0.00225
1907.37187,0.00285
1905.44329,0.00361
1903.51470,0.00426
1901.58612,0.00481
1899.65753,0.00541
1897.72894,0.00603
1895.80036,0.00662
1893.87177,0.00712
1891.94318,0.00779
1890.01460,0.00813
1888.08601,0.00820
1886.15742,0.00867
1884.22884,0.00907
1882.30025,0.00941
1880.37167,0.00960
1878.44308,0.00968
1876.51449,0.00988
1874.58591,0.01005
1872.65732,0.01028
1870.72873,0.01009
1868.80015,0.00941
1866.87156,0.00895
1864.94298,0.00890
1863.01439,0.00867
1861.08580,0.00803
1859.15722,0.00724
1857.22863,0.00624
1855.30004,0.00544
1853.37146,0.00450
1851.44287,0.00362
1849.51428,0.00298
1847.58570,0.00238
1845.65711,0.00181
1843.72853,0.00038
1841.79994,0.00000
1839.87135,0.00035
1837.94277,0.00004
1836.01418,-0.00018
1834.08559,-0.00027
1832.15701,-0.00019
1830.22842,-0.00064
1828.29984,-0.00085
1826.37125,-0.00032
1824.44266,-0.00029
1822.51408,0.00015
1820.58549,0.00081
1818.65690,0.00121
1816.72832,0.00166
1814.79973,0.00230
1812.87114,0.00314
1810.94256,0.00370
1809.01397,0.00441
1807.08539,0.00543
1805.15680,0.00656
1803.22821,0.00770
1801.29963,0.00864
1799.37104,0.00974
1797.44245,0.01129
1795.51387,0.01316
1793.58528,0.01464
1791.65669,0.01556
1789.72811,0.01731
1787.79952,0.01974
1785.87094,0.02152
1783.94235,0.02315
1782.01376,0.02501
1780.08518,0.02674
1778.15659,0.02865
1776.22800,0.03056
1774.29942,0.03229
1772.37083,0.03316
1770.44225,0.03437
1768.51366,0.03662
1766.58507,0.03823
1764.65649,0.04020
1762.72790,0.04201
1760.79931,0.04343
1758.87073,0.04590
1756.94214,0.04820
1755.01355,0.05078
1753.08497,0.05378
1751.15638,0.05624
1749.22780,0.05903
1747.29921,0.06266
1745.37062,0.06659
1743.44204,0.07073
1741.51345,0.07477
1739.58486,0.07846
1737.65628,0.08241
1735.72769,0.08613
1733.79911,0.08781
1731.87052,0.09017
1729.94193,0.09391
1728.01335,0.09681
1726.08476,0.09985
1724.15617,0.10267
1722.22759,0.10565
1720.29900,0.10922
1718.37041,0.11162
1716.44183,0.11381
1714.51324,0.11687
1712.58466,0.12032
1710.65607,0.12347
1708.72748,0.12626
1706.79890,0.12891
1704.87031,0.13106
1702.94172,0.13428
1701.01314,0.13678
1699.08455,0.13860
1697.15596,0.14257
1695.22738,0.14522
1693.29879,0.14823
1691.37021,0.15212
1689.44162,0.15476
1687.51303,0.15799
1685.58445,0.16067
1683.65586,0.16173
1681.72727,0.16507
1679.79869,0.16872
1677.87010,0.17189
1675.94152,0.17418
1674.01293,0.17592
1672.08434,0.17869
1670.15576,0.18038
1668.22717,0.18160
1666.29858,0.18397
1664.37000,0.18604
1662.44141,0.18688
1660.51282,0.18764
1658.58424,0.18891
1656.65565,0.18972
1654.72707,0.18985
1652.79848,0.18673
1650.86989,0.18639
1648.94131,0.18847
1647.01272,0.18786
1645.08413,0.18691
1643.15555,0.18748
1641.22696,0.18810
1639.29838,0.18844
1637.36979,0.18842
1635.44120,0.18719
1633.51262,0.18649
1631.58403,0.18734
1629.65544,0.18685
1627.72686,0.18526
1625.79827,0.18350
1623.86968,0.18119
1621.94110,0.17839
1620.01251,0.17670
1618.08393,0.17498
1616.15534,0.17101
1614.22675,0.16914
1612.29817,0.16819
1610.36958,0.16655
1608.44099,0.16492
1606.51241,0.16316
1604.58382,0.16175
1602.65524,0.15982
1600.72665,0.15795
1598.79806,0.15605
1596.86948,0.15429
1594.94089,0.15271
1593.01230,0.15096
1591.08372,0.14943
1589.15513,0.14761
1587.22654,0.14589
1585.29796,0.14407
1583.36937,0.14240
1581.44079,0.14066
1579.51220,0.13923
1577.58361,0.13804
1575.65503,0.13516
1573.72644,0.13418
1571.79785,0.13463
1569.86927,0.13357
1567.94068,0.13260
1566.01209,0.13277
1564.08351,0.13287
1562.15492,0.13356
1560.22634,0.13341
1558.29775,0.13061
1556.36916,0.13169
1554.44058,0.13353
1552.51199,0.13423
1550.58340,0.13489
1548.65482,0.13487
1546.72623,0.13528
1544.79765,0.13510
1542.86906,0.13439
1540.94047,0.13337
1539.01189,0.13104
1537.08330,0.13184
1535.15471,0.13243
1533.22613,0.13102
1531.29754,0.13008
1529.36895,0.12971
1527.44037,0.12861
1525.51178,0.12705
1523.58320,0.12650
1521.65461,0.12517
1519.72602,0.12421
1517.79744,0.12451
1515.86885,0.12387
1513.94026,0.12280
1512.01168,0.12068
1510.08309,0.11803
1508.15451,0.11493
1506.22592,0.10900
1504.29733,0.10543
1502.36875,0.10388
1500.44016,0.10099
1498.51157,0.09725
1496.58299,0.09324
1494.65440,0.08990
1492.72581,0.08798
1490.79723,0.08547
1488.86864,0.08237
1486.94006,0.08072
1485.01147,0.08014
1483.08288,0.08009
1481.15430,0.08044
1479.22571,0.08140
1477.29712,0.08293
1475.36854,0.08507
1473.43995,0.08843
1471.51137,0.09330
1469.58278,0.09943
1467.65419,0.10476
1465.72561,0.10709
1463.79702,0.10780
1461.86843,0.10889
1459.93985,0.11003
1458.01126,0.11017
1456.08267,0.10947
1454.15409,0.11064
1452.22550,0.11153
1450.29692,0.11137
1448.36833,0.11095
1446.43974,0.11045
1444.51116,0.11054
1442.58257,0.11034
1440.65398,0.11010
1438.72540,0.11008
1436.79681,0.10894
1434.86822,0.10816
1432.93964,0.10862
1431.01105,0.10867
1429.08247,0.10820
1427.15388,0.10820
1425.22529,0.10813
1423.29671,0.10785
1421.36812,0.10800
1419.43953,0.10737
1417.51095,0.10660
1415.58236,0.10705
1413.65378,0.10712
1411.72519,0.10663
1409.79660,0.10591
1407.86802,0.10502
1405.93943,0.10400
1404.01084,0.10271
1402.08226,0.10194
1400.15367,0.10080
1398.22508,0.09942
1396.29650,0.09862
1394.36791,0.09758
1392.43933,0.09695
1390.51074,0.09674
1388.58215,0.09600
1386.65357,0.09434
1384.72498,0.09331
1382.79639,0.09427
1380.86781,0.09590
1378.93922,0.09690
1377.01064,0.09709
1375.08205,0.09633
1373.15346,0.09520
1371.22488,0.09443
1369.29629,0.09347
1367.36770,0.09199
1365.43912,0.09045
1363.51053,0.08860
1361.58194,0.08687
1359.65336,0.08595
1357.72477,0.08531
1355.79619,0.08437
1353.86760,0.08351
1351.93901,0.08312
1350.01043,0.08259
1348.08184,0.08198
1346.15325,0.08159
1344.22467,0.08120
1342.29608,0.08059
1340.36750,0.07986
1338.43891,0.07944
1336.51032,0.07924
1334.58174,0.07897
1332.65315,0.07862
1330.72456,0.07837
1328.79598,0.07816
1326.86739,0.07780
1324.93880,0.07758
1323.01022,0.07765
1321.08163,0.07761
1319.15305,0.07735
1317.22446,0.07730
1315.29587,0.07716
1313.36729,0.07666
1311.43870,0.07632
1309.51011,0.07623
1307.58153,0.07634
1305.65294,0.07639
1303.72435,0.07633
1301.79577,0.07637
1299.86718,0.07646
1297.93860,0.07675
1296.01001,0.07714
1294.08142,0.07759
1292.15284,0.07836
1290.22425,0.07925
1288.29566,0.08011
1286.36708,0.08124
1284.43849,0.08267
1282.50991,0.08410
1280.58132,0.08561
1278.65273,0.08723
1276.72415,0.08874
1274.79556,0.09017
1272.86697,0.09173
1270.93839,0.09353
1269.00980,0.09551
1267.08121,0.09760
1265.15263,0.10010
1263.22404,0.10327
1261.29546,0.10641
1259.36687,0.10958
1257.43828,0.11368
1255.50970,0.11829
1253.58111,0.12318
1251.65252,0.12822
1249.72394,0.13304
1247.79535,0.13784
1245.86677,0.14245
1243.93818,0.14667
1242.00959,0.15048
1240.08101,0.15413
1238.15242,0.15778
1236.22383,0.16097
1234.29525,0.16386
1232.36666,0.16641
1230.43807,0.16873
1228.50949,0.17094
1226.58090,0.17292
1224.65232,0.17492
1222.72373,0.17695
1220.79514,0.17907
1218.86656,0.18111
1216.93797,0.18293
1215.00938,0.18485
1213.08080,0.18706
1211.15221,0.18966
1209.22363,0.19206
1207.29504,0.19402
1205.36645,0.19572
1203.43787,0.19733
1201.50928,0.19917
1199.58069,0.20103
1197.65211,0.20272
1195.72352,0.20447
1193.79493,0.20637
1191.86635,0.20810
1189.93776,0.20969
1188.00918,0.21114
1186.08059,0.21229
1184.15200,0.21380
1182.22342,0.21567
1180.29483,0.21773
1178.36624,0.22021
1176.43766,0.22265
1174.50907,0.22506
1172.58048,0.22764
1170.65190,0.23035
1168.72331,0.23328
1166.79473,0.23662
1164.86614,0.24004
1162.93755,0.24269
1161.00897,0.24423
1159.08038,0.24498
1157.15179,0.24560
1155.22321,0.24657
1153.29462,0.24788
1151.36604,0.24929
1149.43745,0.25101
1147.50886,0.25302
1145.58028,0.25511
1143.65169,0.25784
1141.72310,0.26084
1139.79452,0.26404
1137.86593,0.26760
1135.93734,0.27101
1134.00876,0.27487
1132.08017,0.27859
1130.15159,0.28188
1128.22300,0.28620
1126.29441,0.29159
1124.36583,0.29688
1122.43724,0.30181
1120.50865,0.30704
1118.58007,0.31239
1116.65148,0.31809
1114.72290,0.32444
1112.79431,0.33093
1110.86572,0.33683
1108.93714,0.34195
1107.00855,0.34776
1105.07996,0.35364
1103.15138,0.35780
1101.22279,0.36097
1099.29420,0.36376
1097.36562,0.36550
1095.43703,0.36680
1093.50845,0.36848
1091.57986,0.36947
1089.65127,0.36966
1087.72269,0.36949
1085.79410,0.36940
1083.86551,0.36956
1081.93693,0.36875
1080.00834,0.36710
1078.07976,0.36569
1076.15117,0.36500
1074.22258,0.36438
1072.29400,0.36346
1070.36541,0.36259
1068.43682,0.36200
1066.50824,0.36216
1064.57965,0.36248
1062.65106,0.36228
1060.72248,0.36103
1058.79389,0.35891
1056.86531,0.35715
1054.93672,0.35584
1053.00813,0.35445
1051.07955,0.35270
1049.15096,0.35149
1047.22237,0.35182
1045.29379,0.35316
1043.36520,0.35478
1041.43661,0.35631
1039.50803,0.35789
1037.57944,0.35957
1035.65086,0.36123
1033.72227,0.36264
1031.79368,0.36254
1029.86510,0.36093
1027.93651,0.35887
1026.00792,0.35613
1024.07934,0.35295
1022.15075,0.35021
1020.22217,0.34750
1018.29358,0.34452
1016.36499,0.34163
1014.43641,0.33882
1012.50782,0.33640
1010.57923,0.33416
1008.65065,0.33131
1006.72206,0.32809
1004.79347,0.32456
1002.86489,0.32059
1000.93630,0.31613
999.00772,0.31112
997.07913,0.30582
995.15054,0.30023
993.22196,0.29502
991.29337,0.29010
989.36478,0.28445
987.43620,0.27798
985.50761,0.27087
983.57903,0.26326
981.65044,0.25498
979.72185,0.24612
977.79327,0.23675
975.86468,0.22690
973.93609,0.21710
972.00751,0.20710
970.07892,0.19698
968.15033,0.18742
966.22175,0.17868
964.29316,0.17064
962.36458,0.16295
960.43599,0.15595
958.50740,0.14996
956.57882,0.14462
954.65023,0.13993
952.72164,0.13590
950.79306,0.13209
948.86447,0.12870
946.93589,0.12616
945.00730,0.12397
943.07871,0.12195
941.15013,0.12055
939.22154,0.11966
937.29295,0.11853
935.36437,0.11662
933.43578,0.11466
931.50719,0.11351
929.57861,0.11265
927.65002,0.11166
925.72144,0.11087
923.79285,0.11012
921.86426,0.10971
919.93568,0.10944
918.00709,0.10894
916.07850,0.10870
914.14992,0.10785
912.22133,0.10572
910.29274,0.10256
908.36416,0.09816
906.43557,0.09266
904.50699,0.08671
902.57840,0.08040
900.64981,0.07400
898.72123,0.06855
896.79264,0.06327
894.86405,0.05768
892.93547,0.05304
891.00688,0.04920
889.07830,0.04577
887.14971,0.04241
885.22112,0.03906
883.29254,0.03596
881.36395,0.03262
879.43536,0.02934
877.50678,0.02643
875.57819,0.02359
873.64960,0.02058
871.72102,0.01712
869.79243,0.01375
867.86385,0.01119
865.93526,0.00896
864.00667,0.00666
862.07809,0.00468
860.14950,0.00296
858.22091,0.00151
856.29233,0.00053
854.36374,0.00000
852.43516,0.00011
850.50657,0.00051
848.57798,0.00078
846.64940,0.00154
844.72081,0.00325
842.79222,0.00568
840.86364,0.00863
838.93505,0.01242
837.00646,0.01658
835.07788,0.01986
833.14929,0.02257
831.22071,0.02495
829.29212,0.02632
827.36353,0.02710
825.43495,0.02773
823.50636,0.02836
821.57777,0.02904
819.64919,0.02992
817.72060,0.03121
815.79201,0.03274
813.86343,0.03484
811.93484,0.03779
810.00626,0.04271
808.07767,0.04978
806.14908,0.05799
804.22050,0.06653
802.29191,0.07300
800.36332,0.07594
798.43474,0.07467
796.50615,0.07003
794.57757,0.06473
792.64898,0.05938
790.72039,0.05460
788.79181,0.05130
786.86322,0.05007
784.93463,0.05093
783.00605,0.05262
781.07746,0.05385
779.14887,0.05298
777.22029,0.04942
775.29170,0.04371
773.36312,0.03709
771.43453,0.03114
769.50594,0.02665
767.57736,0.02434
765.64877,0.02366
763.72018,0.02387
761.79160,0.02450
759.86301,0.02471
757.93443,0.02458
756.00584,0.02460
754.07725,0.02466
752.14867,0.02397
750.22008,0.02287
748.29149,0.02184
746.36291,0.02053
744.43432,0.01880
742.50573,0.01625
740.57715,0.01353
738.64856,0.01098
736.71998,0.00830
734.79139,0.00660
732.86280,0.00569
730.93422,0.00504
729.00563,0.00473
727.07704,0.00452
725.14846,0.00497
723.21987,0.00555
721.29129,0.00508
719.36270,0.00389
717.43411,0.00258
715.50553,0.00136
713.57694,0.00076
711.64835,0.00088
709.71977,0.00127
707.79118,0.00187
705.86259,0.00300
703.93401,0.00531
702.00542,0.00886
700.07684,0.01353
698.14825,0.01905
696.21966,0.02296
694.29108,0.02286
692.36249,0.01889
690.43390,0.01390
688.50532,0.01055
686.57673,0.00863
684.64814,0.00750
682.71956,0.00655
680.79097,0.00578
678.86239,0.00532
676.93380,0.00415
675.00521,0.00260
673.07663,0.00213
671.14804,0.00239
669.21945,0.00123
667.29087,0.00000
665.36228,-0.00000
663.43370,-0.00075
661.50511,-0.00111
659.57652,-0.00122
657.64794,-0.00160
655.71935,-0.00119
653.79076,-0.00093
651.86218,-0.00042
649.93359,0.00077
648.00500,0.00147
646.07642,0.00111
644.14783,0.00104
642.21925,0.00209
640.29066,0.00318
638.36207,0.00341
636.43349,0.00315
634.50490,0.00387
632.57631,0.00370
630.64773,0.00213
628.71914,0.00220
626.79056,0.00368
624.86197,0.00501
622.93338,0.00539
621.00480,0.00589
619.07621,0.00673
617.14762,0.00768
615.21904,0.00888
613.29045,0.00872
611.36186,0.00948
609.43328,0.01174
607.50469,0.01291
605.57611,0.01353
603.64752,0.01488
601.71893,0.01697
599.79035,0.01906
597.86176,0.02173
595.93317,0.02415
594.00459,0.02644
592.07600,0.02966
590.14742,0.03228
588.21883,0.03498
586.29024,0.03830
584.36166,0.04223
582.43307,0.04708
580.50448,0.05175
578.57590,0.05556
576.64731,0.05917
574.71872,0.06342
572.79014,0.06746
570.86155,0.07178
568.93297,0.07740
567.00438,0.08333
565.07579,0.08832
563.14721,0.09359
561.21862,0.10035
559.29003,0.10610
557.36145,0.11082
555.43286,0.11488
553.50427,0.11875
551.57569,0.12378
549.64710,0.12720
547.71852,0.12996
545.78993,0.13482
543.86134,0.14099
541.93276,0.14702
540.00417,0.15303
538.07558,0.15888
536.14700,0.16360
534.21841,0.16819
532.28983,0.17183
530.36124,0.17337
528.43265,0.17290
526.50407,0.17100
524.57548,0.16969
522.64689,0.16895
520.71831,0.16597
518.78972,0.15879
516.86113,0.15244
514.93255,0.14824
513.00396,0.14253
511.07538,0.13736
509.14679,0.13249
507.21820,0.12921
505.28962,0.12924
503.36103,0.12983
501.43244,0.13151
499.50386,0.13314
497.57527,0.13602
495.64669,0.14317
493.71810,0.15271
491.78951,0.16326
489.86093,0.17501
487.93234,0.18810
486.00375,0.20027
484.07517,0.21043
482.14658,0.22052
480.21799,0.23147
478.28941,0.24160
476.36082,0.24720
474.43224,0.24872
472.50365,0.24982
470.57506,0.25044
468.64648,0.24555
466.71789,0.23442
464.78930,0.22168
462.86072,0.20754
460.93213,0.19824
459.00355,0.19141
457.07496,0.17709
455.14637,0.16109
453.21779,0.14688
451.28920,0.13761
449.36061,0.13163
447.43203,0.12245
445.50344,0.11426
443.57485,0.10778
441.64627,0.10216
439.71768,0.09945
437.78910,0.09498
435.86051,0.09054
433.93192,0.09079
432.00334,0.08821
430.07475,0.08271
428.14616,0.07825
426.21758,0.07508
424.28899,0.07127
422.36040,0.06387
420.43182,0.05849
418.50323,0.05386
416.57465,0.04751
414.64606,0.03793
412.71747,0.02826
410.78889,0.02408
408.86030,0.01804
406.93171,0.01077
405.00313,0.00150
403.07454,0.00000
401.14596,0.00484
399.21737,0.00000
