3747.24323,0.00000
3745.31464,0.00105
3743.38605,0.00018
3741.45747,0.00046
3739.52888,0.00217
3737.60030,0.00299
3735.67171,0.00303
3733.74312,0.00300
3731.81454,0.00339
3729.88595,0.00401
3727.95736,0.00511
3726.02878,0.00603
3724.10019,0.00686
3722.17161,0.00823
3720.24302,0.00948
3718.31443,0.01141
3716.38585,0.01363
3714.45726,0.01621
3712.52867,0.01901
3710.60009,0.02147
3708.67150,0.02467
3706.74291,0.02782
3704.81433,0.03131
3702.88574,0.03493
3700.95716,0.03759
3699.02857,0.03983
3697.09998,0.04112
3695.17140,0.04188
3693.24281,0.04224
3691.31422,0.04281
3689.38564,0.04356
3687.45705,0.04411
3685.52846,0.04611
3683.59988,0.04910
3681.67129,0.05225
3679.74271,0.05551
3677.81412,0.05957
3675.88553,0.06372
3673.95695,0.06728
3672.02836,0.07194
3670.09977,0.07657
3668.17119,0.08096
3666.24260,0.08588
3664.31402,0.09057
3662.38543,0.09530
3660.45684,0.09975
3658.52826,0.10404
3656.59967,0.10810
3654.67108,0.11169
3652.74250,0.11569
3650.81391,0.11929
3648.88532,0.12207
3646.95674,0.12477
3645.02815,0.12793
3643.09957,0.13131
3641.17098,0.13429
3639.24239,0.13724
3637.31381,0.14043
3635.38522,0.14381
3633.45663,0.14690
3631.52805,0.15003
3629.59946,0.15279
3627.67088,0.15402
3625.74229,0.15551
3623.81370,0.15713
3621.88512,0.15793
3619.95653,0.15778
3618.02794,0.15609
3616.09936,0.15439
3614.17077,0.15296
3612.24218,0.15147
3610.31360,0.15036
3608.38501,0.14919
3606.45643,0.14795
3604.52784,0.14688
3602.59925,0.14597
3600.67067,0.14512
3598.74208,0.14412
3596.81349,0.14338
3594.88491,0.14306
3592.95632,0.14257
3591.02774,0.14230
3589.09915,0.14229
3587.17056,0.14199
3585.24198,0.14199
3583.31339,0.14228
3581.38480,0.14256
3579.45622,0.14296
3577.52763,0.14345
3575.59904,0.14420
3573.67046,0.14505
3571.74187,0.14583
3569.81329,0.14666
3567.88470,0.14740
3565.95611,0.14809
3564.02753,0.14903
3562.09894,0.15019
3560.17035,0.15123
3558.24177,0.15210
3556.31318,0.15306
3554.38459,0.15413
3552.45601,0.15517
3550.52742,0.15619
3548.59884,0.15732
3546.67025,0.15839
3544.74166,0.15936
3542.81308,0.16034
3540.88449,0.16145
3538.95590,0.16269
3537.02732,0.16380
3535.09873,0.16469
3533.17015,0.16551
3531.24156,0.16661
3529.31297,0.16778
3527.38439,0.16872
3525.45580,0.16982
3523.52721,0.17095
3521.59863,0.17190
3519.67004,0.17290
3517.74145,0.17389
3515.81287,0.17488
3513.88428,0.17598
3511.95570,0.17715
3510.02711,0.17826
3508.09852,0.17924
3506.16994,0.18016
3504.24135,0.18106
3502.31276,0.18204
3500.38418,0.18314
3498.45559,0.18422
3496.52701,0.18520
3494.59842,0.18612
3492.66983,0.18713
3490.74125,0.18820
3488.81266,0.18905
3486.88407,0.18992
3484.95549,0.19093
3483.02690,0.19182
3481.09831,0.19261
3479.16973,0.19336
3477.24114,0.19422
3475.31256,0.19526
3473.38397,0.19617
3471.45538,0.19699
3469.52680,0.19780
3467.59821,0.19850
3465.66962,0.19925
3463.74104,0.20013
3461.81245,0.20090
3459.88386,0.20173
3457.95528,0.20270
3456.02669,0.20330
3454.09811,0.20378
3452.16952,0.20464
3450.24093,0.20565
3448.31235,0.20641
3446.38376,0.20688
3444.45517,0.20737
3442.52659,0.20789
3440.59800,0.20859
3438.66942,0.20953
3436.74083,0.21015
3434.81224,0.21068
3432.88366,0.21123
3430.95507,0.21174
3429.02648,0.21255
3427.09790,0.21316
3425.16931,0.21353
3423.24072,0.21402
3421.31214,0.21449
3419.38355,0.21497
3417.45497,0.21540
3415.52638,0.21593
3413.59779,0.21649
3411.66921,0.21684
3409.74062,0.21711
3407.81203,0.21743
3405.88345,0.21776
3403.95486,0.21797
3402.02628,0.21812
3400.09769,0.21842
3398.16910,0.21891
3396.24052,0.21927
3394.31193,0.21941
3392.38334,0.21961
3390.45476,0.21992
3388.52617,0.22029
3386.59758,0.22045
3384.66900,0.22057
3382.74041,0.22072
3380.81183,0.22082
3378.88324,0.22095
3376.95465,0.22113
3375.02607,0.22144
3373.09748,0.22158
3371.16889,0.22164
3369.24031,0.22189
3367.31172,0.22209
3365.38314,0.22227
3363.45455,0.22239
3361.52596,0.22257
3359.59738,0.22282
3357.66879,0.22300
3355.74020,0.22309
3353.81162,0.22304
3351.88303,0.22311
3349.95444,0.22314
3348.02586,0.22316
3346.09727,0.22339
3344.16869,0.22358
3342.24010,0.22343
3340.31151,0.22323
3338.38293,0.22325
3336.45434,0.22323
3334.52575,0.22321
3332.59717,0.22336
3330.66858,0.22355
3328.73999,0.22353
3326.81141,0.22329
3324.88282,0.22311
3322.95424,0.22293
3321.02565,0.22281
3319.09706,0.22281
3317.16848,0.22278
3315.23989,0.22272
3313.31130,0.22258
3311.38272,0.22246
3309.45413,0.22239
3307.52555,0.22227
3305.59696,0.22214
3303.66837,0.22205
3301.73979,0.22179
3299.81120,0.22145
3297.88261,0.22109
3295.95403,0.22071
3294.02544,0.22056
3292.09685,0.22034
3290.16827,0.21987
3288.23968,0.21938
3286.31110,0.21889
3284.38251,0.21844
3282.45392,0.21805
3280.52534,0.21760
3278.59675,0.21701
3276.66816,0.21634
3274.73958,0.21560
3272.81099,0.21486
3270.88241,0.21413
3268.95382,0.21332
3267.02523,0.21250
3265.09665,0.21166
3263.16806,0.21076
3261.23947,0.20989
3259.31089,0.20905
3257.38230,0.20811
3255.45371,0.20701
3253.52513,0.20593
3251.59654,0.20488
3249.66796,0.20395
3247.73937,0.20312
3245.81078,0.20230
3243.88220,0.20150
3241.95361,0.20062
3240.02502,0.19962
3238.09644,0.19869
3236.16785,0.19791
3234.23927,0.19705
3232.31068,0.19616
3230.38209,0.19537
3228.45351,0.19455
3226.52492,0.19387
3224.59633,0.19311
3222.66775,0.19215
3220.73916,0.19128
3218.81057,0.19052
3216.88199,0.18977
3214.95340,0.18884
3213.02482,0.18796
3211.09623,0.18726
3209.16764,0.18647
3207.23906,0.18561
3205.31047,0.18473
3203.38188,0.18378
3201.45330,0.18296
3199.52471,0.18239
3197.59612,0.18167
3195.66754,0.18078
3193.73895,0.17992
3191.81037,0.17896
3189.88178,0.17803
3187.95319,0.17713
3186.02461,0.17631
3184.09602,0.17553
3182.16743,0.17457
3180.23885,0.17364
3178.31026,0.17275
3176.38168,0.17185
3174.45309,0.17092
3172.52450,0.16998
3170.59592,0.16907
3168.66733,0.16819
3166.73874,0.16751
3164.81016,0.16672
3162.88157,0.16574
3160.95298,0.16479
3159.02440,0.16390
3157.09581,0.16309
3155.16723,0.16233
3153.23864,0.16160
3151.31005,0.16089
3149.38147,0.16017
3147.45288,0.15939
3145.52429,0.15859
3143.59571,0.15786
3141.66712,0.15724
3139.73854,0.15673
3137.80995,0.15606
3135.88136,0.15531
3133.95278,0.15464
3132.02419,0.15399
3130.09560,0.15344
3128.16702,0.15299
3126.23843,0.15256
3124.30984,0.15201
3122.38126,0.15148
3120.45267,0.15097
3118.52409,0.15042
3116.59550,0.14995
3114.66691,0.14956
3112.73833,0.14918
3110.80974,0.14865
3108.88115,0.14820
3106.95257,0.14790
3105.02398,0.14748
3103.09540,0.14705
3101.16681,0.14670
3099.23822,0.14646
3097.30964,0.14610
3095.38105,0.14558
3093.45246,0.14509
3091.52388,0.14461
3089.59529,0.14433
3087.66670,0.14415
3085.73812,0.14377
3083.80953,0.14327
3081.88095,0.14284
3079.95236,0.14238
3078.02377,0.14184
3076.09519,0.14136
3074.16660,0.14093
3072.23801,0.14051
3070.30943,0.13996
3068.38084,0.13942
3066.45225,0.13893
3064.52367,0.13837
3062.59508,0.13770
3060.66650,0.13687
3058.73791,0.13620
3056.80932,0.13563
3054.88074,0.13501
3052.95215,0.13450
3051.02356,0.13386
3049.09498,0.13308
3047.16639,0.13234
3045.23781,0.13176
3043.30922,0.13123
3041.38063,0.13063
3039.45205,0.13010
3037.52346,0.12968
3035.59487,0.12919
3033.66629,0.12855
3031.73770,0.12808
3029.80911,0.12778
3027.88053,0.12739
3025.95194,0.12701
3024.02336,0.12654
3022.09477,0.12614
3020.16618,0.12589
3018.23760,0.12569
3016.30901,0.12553
3014.38042,0.12542
3012.45184,0.12546
3010.52325,0.12555
3008.59467,0.12569
3006.66608,0.12593
3004.73749,0.12628
3002.80891,0.12674
3000.88032,0.12723
2998.95173,0.12784
2997.02315,0.12852
2995.09456,0.12930
2993.16597,0.13028
2991.23739,0.13132
2989.30880,0.13251
2987.38022,0.13393
2985.45163,0.13552
2983.52304,0.13726
2981.59446,0.13907
2979.66587,0.14098
2977.73728,0.14302
2975.80870,0.14519
2973.88011,0.14754
2971.95153,0.15003
2970.02294,0.15260
2968.09435,0.15526
2966.16577,0.15795
2964.23718,0.16065
2962.30859,0.16338
2960.38001,0.16587
2958.45142,0.16800
2956.52283,0.17001
2954.59425,0.17194
2952.66566,0.17376
2950.73708,0.17566
2948.80849,0.17790
2946.87990,0.18092
2944.95132,0.18463
2943.02273,0.18882
2941.09414,0.19380
2939.16556,0.19933
2937.23697,0.20499
2935.30838,0.21078
2933.37980,0.21649
2931.45121,0.22176
2929.52263,0.22654
2927.59404,0.23082
2925.66545,0.23416
2923.73687,0.23605
2921.80828,0.23614
2919.87969,0.23423
2917.95111,0.22964
2916.02252,0.22146
2914.09394,0.21090
2912.16535,0.20070
2910.23676,0.19257
2908.30818,0.18633
2906.37959,0.18121
2904.45100,0.17694
2902.52242,0.17340
2900.59383,0.17020
2898.66524,0.16700
2896.73666,0.16389
2894.80807,0.16096
2892.87949,0.15813
2890.95090,0.15555
2889.02231,0.15300
2887.09373,0.15053
2885.16514,0.14851
2883.23655,0.14694
2881.30797,0.14566
2879.37938,0.14475
2877.45080,0.14436
2875.52221,0.14425
2873.59362,0.14441
2871.66504,0.14477
2869.73645,0.14518
2867.80786,0.14594
2865.87928,0.14738
2863.95069,0.14993
2862.02210,0.15380
2860.09352,0.15910
2858.16493,0.16568
2856.23635,0.17230
2854.30776,0.17729
2852.37917,0.17905
2850.45059,0.17604
2848.52200,0.16754
2846.59341,0.15555
2844.66483,0.14359
2842.73624,0.13325
2840.80766,0.12467
2838.87907,0.11787
2836.95048,0.11253
2835.02190,0.10812
2833.09331,0.10448
2831.16472,0.10159
2829.23614,0.09904
2827.30755,0.09676
2825.37896,0.09486
2823.45038,0.09314
2821.52179,0.09155
2819.59321,0.09005
2817.66462,0.08860
2815.73603,0.08726
2813.80745,0.08606
2811.87886,0.08499
2809.95027,0.08400
2808.02169,0.08301
2806.09310,0.08200
2804.16451,0.08110
2802.23593,0.08023
2800.30734,0.07942
2798.37876,0.07862
2796.45017,0.07778
2794.52158,0.07700
2792.59300,0.07627
2790.66441,0.07556
2788.73582,0.07485
2786.80724,0.07413
2784.87865,0.07347
2782.95007,0.07283
2781.02148,0.07220
2779.09289,0.07159
2777.16431,0.07101
2775.23572,0.07043
2773.30713,0.06982
2771.37855,0.06934
2769.44996,0.06899
2767.52137,0.06854
2765.59279,0.06806
2763.66420,0.06772
2761.73562,0.06740
2759.80703,0.06692
2757.87844,0.06646
2755.94986,0.06619
2754.02127,0.06588
2752.09268,0.06556
2750.16410,0.06520
2748.23551,0.06477
2746.30693,0.06446
2744.37834,0.06418
2742.44975,0.06387
2740.52117,0.06353
2738.59258,0.06313
2736.66399,0.06272
2734.73541,0.06239
2732.80682,0.06208
2730.87823,0.06176
2728.94965,0.06148
2727.02106,0.06111
2725.09248,0.06066
2723.16389,0.06022
2721.23530,0.05976
2719.30672,0.05934
2717.37813,0.05902
2715.44954,0.05872
2713.52096,0.05831
2711.59237,0.05782
2709.66379,0.05739
2707.73520,0.05696
2705.80661,0.05653
2703.87803,0.05621
2701.94944,0.05595
2700.02085,0.05564
2698.09227,0.05532
2696.16368,0.05500
2694.23509,0.05466
2692.30651,0.05436
2690.37792,0.05417
2688.44934,0.05396
2686.52075,0.05373
2684.59216,0.05348
2682.66358,0.05313
2680.73499,0.05277
2678.80640,0.05242
2676.87782,0.05207
2674.94923,0.05177
2673.02064,0.05143
2671.09206,0.05108
2669.16347,0.05077
2667.23489,0.05054
2665.30630,0.05036
2663.37771,0.05008
2661.44913,0.04971
2659.52054,0.04937
2657.59195,0.04903
2655.66337,0.04870
2653.73478,0.04840
2651.80620,0.04806
2649.87761,0.04768
2647.94902,0.04740
2646.02044,0.04724
2644.09185,0.04702
2642.16326,0.04673
2640.23468,0.04645
2638.30609,0.04611
2636.37750,0.04576
2634.44892,0.04550
2632.52033,0.04517
2630.59175,0.04482
2628.66316,0.04455
2626.73457,0.04433
2624.80599,0.04410
2622.87740,0.04374
2620.94881,0.04334
2619.02023,0.04299
2617.09164,0.04268
2615.16306,0.04239
2613.23447,0.04211
2611.30588,0.04179
2609.37730,0.04145
2607.44871,0.04119
2605.52012,0.04089
2603.59154,0.04056
2601.66295,0.04023
2599.73436,0.03986
2597.80578,0.03950
2595.87719,0.03918
2593.94861,0.03897
2592.02002,0.03873
2590.09143,0.03841
2588.16285,0.03811
2586.23426,0.03786
2584.30567,0.03760
2582.37709,0.03726
2580.44850,0.03690
2578.51991,0.03658
2576.59133,0.03633
2574.66274,0.03613
2572.73416,0.03580
2570.80557,0.03549
2568.87698,0.03526
2566.94840,0.03497
2565.01981,0.03474
2563.09122,0.03462
2561.16264,0.03448
2559.23405,0.03416
2557.30547,0.03377
2555.37688,0.03348
2553.44829,0.03328
2551.51971,0.03308
2549.59112,0.03283
2547.66253,0.03254
2545.73395,0.03226
2543.80536,0.03205
2541.87677,0.03190
2539.94819,0.03168
2538.01960,0.03147
2536.09102,0.03128
2534.16243,0.03103
2532.23384,0.03083
2530.30526,0.03062
2528.37667,0.03030
2526.44808,0.03005
2524.51950,0.02986
2522.59091,0.02964
2520.66233,0.02947
2518.73374,0.02921
2516.80515,0.02883
2514.87657,0.02857
2512.94798,0.02835
2511.01939,0.02808
2509.09081,0.02790
2507.16222,0.02770
2505.23363,0.02741
2503.30505,0.02715
2501.37646,0.02689
2499.44788,0.02664
2497.51929,0.02640
2495.59070,0.02610
2493.66212,0.02582
2491.73353,0.02556
2489.80494,0.02526
2487.87636,0.02498
2485.94777,0.02480
2484.01919,0.02456
2482.09060,0.02425
2480.16201,0.02402
2478.23343,0.02378
2476.30484,0.02346
2474.37625,0.02318
2472.44767,0.02296
2470.51908,0.02275
2468.59049,0.02248
2466.66191,0.02211
2464.73332,0.02180
2462.80474,0.02156
2460.87615,0.02133
2458.94756,0.02106
2457.01898,0.02079
2455.09039,0.02053
2453.16180,0.02023
2451.23322,0.01998
2449.30463,0.01973
2447.37604,0.01940
2445.44746,0.01907
2443.51887,0.01878
2441.59029,0.01850
2439.66170,0.01822
2437.73311,0.01793
2435.80453,0.01772
2433.87594,0.01755
2431.94735,0.01724
2430.01877,0.01690
2428.09018,0.01664
2426.16160,0.01638
2424.23301,0.01610
2422.30442,0.01584
2420.37584,0.01564
2418.44725,0.01544
2416.51866,0.01522
2414.59008,0.01502
2412.66149,0.01481
2410.73290,0.01458
2408.80432,0.01429
2406.87573,0.01398
2404.94715,0.01377
2403.01856,0.01354
2401.08997,0.01320
2399.16139,0.01295
2397.23280,0.01283
2395.30421,0.01263
2393.37563,0.01232
2391.44704,0.01204
2389.51846,0.01185
2387.58987,0.01169
2385.66128,0.01143
2383.73270,0.01116
2381.80411,0.01095
2379.87552,0.01073
2377.94694,0.01048
2376.01835,0.01028
2374.08976,0.01011
2372.16118,0.00985
2370.23259,0.00953
2368.30401,0.00921
2366.37542,0.00892
2364.44683,0.00858
2362.51825,0.00826
2360.58966,0.00804
2358.66107,0.00780
2356.73249,0.00764
2354.80390,0.00755
2352.87532,0.00744
2350.94673,0.00748
2349.01814,0.00774
2347.08956,0.00783
2345.16097,0.00760
2343.23238,0.00739
2341.30380,0.00719
2339.37521,0.00707
2337.44662,0.00698
2335.51804,0.00671
2333.58945,0.00652
2331.66087,0.00635
2329.73228,0.00618
2327.80369,0.00606
2325.87511,0.00596
2323.94652,0.00590
2322.01793,0.00580
2320.08935,0.00569
2318.16076,0.00560
2316.23217,0.00550
2314.30359,0.00536
2312.37500,0.00527
2310.44642,0.00522
2308.51783,0.00513
2306.58924,0.00506
2304.66066,0.00496
2302.73207,0.00478
2300.80348,0.00461
2298.87490,0.00454
2296.94631,0.00451
2295.01773,0.00440
2293.08914,0.00427
2291.16055,0.00412
2289.23197,0.00410
2287.30338,0.00409
2285.37479,0.00396
2283.44621,0.00382
2281.51762,0.00371
2279.58903,0.00364
2277.66045,0.00355
2275.73186,0.00341
2273.80328,0.00328
2271.87469,0.00321
2269.94610,0.00315
2268.01752,0.00307
2266.08893,0.00303
2264.16034,0.00293
2262.23176,0.00285
2260.30317,0.00286
2258.37459,0.00282
2256.44600,0.00268
2254.51741,0.00253
2252.58883,0.00248
2250.66024,0.00242
2248.73165,0.00233
2246.80307,0.00224
2244.87448,0.00220
2242.94589,0.00221
2241.01731,0.00214
2239.08872,0.00214
2237.16014,0.00209
2235.23155,0.00194
2233.30296,0.00180
2231.37438,0.00172
2229.44579,0.00172
2227.51720,0.00162
2225.58862,0.00151
2223.66003,0.00146
2221.73145,0.00137
2219.80286,0.00129
2217.87427,0.00126
2215.94569,0.00118
2214.01710,0.00098
2212.08851,0.00080
2210.15993,0.00072
2208.23134,0.00072
2206.30275,0.00069
2204.37417,0.00057
2202.44558,0.00053
2200.51700,0.00057
2198.58841,0.00054
2196.65982,0.00042
2194.73124,0.00041
2192.80265,0.00043
2190.87406,0.00039
2188.94548,0.00040
2187.01689,0.00037
2185.08830,0.00030
2183.15972,0.00032
2181.23113,0.00032
2179.30255,0.00024
2177.37396,0.00024
2175.44537,0.00033
2173.51679,0.00030
2171.58820,0.00013
2169.65961,0.00000
2167.73103,0.00007
2165.80244,0.00021
2163.87386,0.00023
2161.94527,0.00018
2160.01668,0.00013
2158.08810,0.00014
2156.15951,0.00014
2154.23092,0.00011
2152.30234,0.00015
2150.37375,0.00017
2148.44516,0.00018
2146.51658,0.00020
2144.58799,0.00026
2142.65941,0.00032
2140.73082,0.00026
2138.80223,0.00018
2136.87365,0.00025
2134.94506,0.00036
2133.01647,0.00035
2131.08789,0.00030
2129.15930,0.00019
2127.23072,0.00010
2125.30213,0.00006
2123.37354,0.00000
2121.44496,-0.00003
2119.51637,-0.00005
2117.58778,-0.00004
2115.65920,-0.00001
2113.73061,-0.00004
2111.80202,-0.00010
2109.87344,-0.00010
2107.94485,-0.00003
2106.01627,-0.00002
2104.08768,-0.00005
2102.15909,-0.00011
2100.23051,-0.00009
2098.30192,-0.00004
2096.37333,-0.00006
2094.44475,-0.00003
2092.51616,-0.00005
2090.58758,-0.00006
2088.65899,0.00002
2086.73040,0.00006
2084.80182,0.00006
2082.87323,0.00001
2080.94464,0.00000
2079.01606,0.00002
2077.08747,0.00007
2075.15888,0.00011
2073.23030,0.00008
2071.30171,0.00003
2069.37313,0.00007
2067.44454,0.00013
2065.51595,0.00007
2063.58737,0.00007
2061.65878,0.00008
2059.73019,0.00003
2057.80161,0.00015
2055.87302,0.00023
2053.94443,0.00020
2052.01585,0.00028
2050.08726,0.00040
2048.15868,0.00051
2046.23009,0.00060
2044.30150,0.00074
2042.37292,0.00095
2040.44433,0.00118
2038.51574,0.00145
2036.58716,0.00175
2034.65857,0.00200
2032.72999,0.00214
2030.80140,0.00226
2028.87281,0.00238
2026.94423,0.00247
2025.01564,0.00251
2023.08705,0.00250
2021.15847,0.00253
2019.22988,0.00266
2017.30129,0.00276
2015.37271,0.00284
2013.44412,0.00306
2011.51554,0.00333
2009.58695,0.00355
2007.65836,0.00380
2005.72978,0.00397
2003.80119,0.00404
2001.87260,0.00410
1999.94402,0.00419
1998.01543,0.00420
1996.08685,0.00412
1994.15826,0.00406
1992.22967,0.00397
1990.30109,0.00386
1988.37250,0.00374
1986.44391,0.00359
1984.51533,0.00352
1982.58674,0.00347
1980.65815,0.00334
1978.72957,0.00320
1976.80098,0.00311
1974.87240,0.00306
1972.94381,0.00294
1971.01522,0.00270
1969.08664,0.00246
1967.15805,0.00220
1965.22946,0.00195
1963.30088,0.00181
1961.37229,0.00160
1959.44371,0.00140
1957.51512,0.00127
1955.58653,0.00113
1953.65795,0.00103
1951.72936,0.00096
1949.80077,0.00087
1947.87219,0.00072
1945.94360,0.00062
1944.01501,0.00056
1942.08643,0.00043
1940.15784,0.00029
1938.22926,0.00021
1936.30067,0.00021
1934.37208,0.00016
1932.44350,0.00001
1930.51491,-0.00007
1928.58632,-0.00009
1926.65774,-0.00008
1924.72915,0.00000
1922.80056,-0.00001
1920.87198,0.00001
1918.94339,0.00013
1917.01481,0.00021
1915.08622,0.00052
1913.15763,0.00105
1911.22905,0.00153
1909.30046,0.00206
1907.37187,0.00256
1905.44329,0.00306
1903.51470,0.00366
1901.58612,0.00423
1899.65753,0.00478
1897.72894,0.00537
1895.80036,0.00598
1893.87177,0.00647
1891.94318,0.00699
1890.01460,0.00749
1888.08601,0.00774
1886.15742,0.00806
1884.22884,0.00837
1882.30025,0.00859
1880.37167,0.00884
1878.44308,0.00901
1876.51449,0.00908
1874.58591,0.00915
1872.65732,0.00930
1870.72873,0.00937
1868.80015,0.00915
1866.87156,0.00871
1864.94298,0.00834
1863.01439,0.00790
1861.08580,0.00724
1859.15722,0.00649
1857.22863,0.00561
1855.30004,0.00475
1853.37146,0.00386
1851.44287,0.00299
1849.51428,0.00225
1847.58570,0.00163
1845.65711,0.00121
1843.72853,0.00050
1841.79994,0.00000
1839.87135,-0.00016
1837.94277,-0.00042
1836.01418,-0.00060
1834.08559,-0.00070
1832.15701,-0.00061
1830.22842,-0.00058
1828.29984,-0.00056
1826.37125,-0.00023
1824.44266,0.00001
1822.51408,0.00034
1820.58549,0.00083
1818.65690,0.00128
1816.72832,0.00173
1814.79973,0.00233
1812.87114,0.00315
1810.94256,0.00395
1809.01397,0.00483
1807.08539,0.00585
1805.15680,0.00693
1803.22821,0.00811
1801.29963,0.00936
1799.37104,0.01069
1797.44245,0.01215
1795.51387,0.01383
1793.58528,0.01556
1791.65669,0.01709
1789.72811,0.01874
1787.79952,0.02073
1785.87094,0.02270
1783.94235,0.02460
1782.01376,0.02650
1780.08518,0.02835
1778.15659,0.03020
1776.22800,0.03207
1774.29942,0.03399
1772.37083,0.03553
1770.44225,0.03710
1768.51366,0.03905
1766.58507,0.04068
1764.65649,0.04257
1762.72790,0.04472
1760.79931,0.04663
1758.87073,0.04891
1756.94214,0.05144
1755.01355,0.05414
1753.08497,0.05726
1751.15638,0.06059
1749.22780,0.06414
1747.29921,0.06810
1745.37062,0.07225
1743.44204,0.07666
1741.51345,0.08129
1739.58486,0.08564
1737.65628,0.08976
1735.72769,0.09381
1733.79911,0.09703
1731.87052,0.09972
1729.94193,0.10273
1728.01335,0.10553
1726.08476,0.10836
1724.15617,0.11126
1722.22759,0.11414
1720.29900,0.11737
1718.37041,0.12034
1716.44183,0.12293
1714.51324,0.12539
1712.58466,0.12787
1710.65607,0.13027
1708.72748,0.13247
1706.79890,0.13480
1704.87031,0.13696
1702.94172,0.13953
1701.01314,0.14228
1699.08455,0.14466
1697.15596,0.14774
1695.22738,0.15047
1693.29879,0.15305
1691.37021,0.15639
1689.44162,0.15943
1687.51303,0.16266
1685.58445,0.16589
1683.65586,0.16834
1681.72727,0.17126
1679.79869,0.17449
1677.87010,0.17771
1675.94152,0.18059
1674.01293,0.18289
1672.08434,0.18552
1670.15576,0.18791
1668.22717,0.18971
1666.29858,0.19156
1664.37000,0.19342
1662.44141,0.19479
1660.51282,0.19573
1658.58424,0.19655
1656.65565,0.19719
1654.72707,0.19775
1652.79848,0.19690
1650.86989,0.19606
1648.94131,0.19651
1647.01272,0.19613
1645.08413,0.19515
1643.15555,0.19476
1641.22696,0.19470
1639.29838,0.19456
1637.36979,0.19453
1635.44120,0.19403
1633.51262,0.19314
1631.58403,0.19285
1629.65544,0.19208
1627.72686,0.19065
1625.79827,0.18882
1623.86968,0.18655
1621.94110,0.18401
1620.01251,0.18191
1618.08393,0.18012
1616.15534,0.17727
1614.22675,0.17482
1612.29817,0.17287
1610.36958,0.17062
1608.44099,0.16849
1606.51241,0.16667
1604.58382,0.16507
1602.65524,0.16318
1600.72665,0.16137
1598.79806,0.15951
1596.86948,0.15763
1594.94089,0.15582
1593.01230,0.15389
1591.08372,0.15202
1589.15513,0.15011
1587.22654,0.14835
1585.29796,0.14638
1583.36937,0.14435
1581.44079,0.14232
1579.51220,0.14064
1577.58361,0.13940
1575.65503,0.13754
1573.72644,0.13630
1571.79785,0.13592
1569.86927,0.13519
1567.94068,0.13450
1566.01209,0.13440
1564.08351,0.13451
1562.15492,0.13503
1560.22634,0.13557
1558.29775,0.13502
1556.36916,0.13518
1554.44058,0.13594
1552.51199,0.13624
1550.58340,0.13674
1548.65482,0.13689
1546.72623,0.13688
1544.79765,0.13675
1542.86906,0.13644
1540.94047,0.13604
1539.01189,0.13470
1537.08330,0.13396
1535.15471,0.13377
1533.22613,0.13284
1531.29754,0.13166
1529.36895,0.13061
1527.44037,0.12943
1525.51178,0.12815
1523.58320,0.12734
1521.65461,0.12646
1519.72602,0.12558
1517.79744,0.12516
1515.86885,0.12404
1513.94026,0.12203
1512.01168,0.11938
1510.08309,0.11653
1508.15451,0.11378
1506.22592,0.10969
1504.29733,0.10545
1502.36875,0.10228
1500.44016,0.09893
1498.51157,0.09535
1496.58299,0.09158
1494.65440,0.08793
1492.72581,0.08526
1490.79723,0.08289
1488.86864,0.08058
1486.94006,0.07889
1485.01147,0.07781
1483.08288,0.07744
1481.15430,0.07781
1479.22571,0.07887
1477.29712,0.08085
1475.36854,0.08397
1473.43995,0.08842
1471.51137,0.09407
1469.58278,0.10015
1467.65419,0.10536
1465.72561,0.10831
1463.79702,0.10948
1461.86843,0.11020
1459.93985,0.11113
1458.01126,0.11208
1456.08267,0.11233
1454.15409,0.11257
1452.22550,0.11263
1450.29692,0.11221
1448.36833,0.11182
1446.43974,0.11133
1444.51116,0.11100
1442.58257,0.11071
1440.65398,0.11052
1438.72540,0.11067
1436.79681,0.11047
1434.86822,0.11012
1432.93964,0.11005
1431.01105,0.10998
1429.08247,0.10985
1427.15388,0.10983
1425.22529,0.10995
1423.29671,0.11022
1421.36812,0.11083
1419.43953,0.11114
1417.51095,0.11098
1415.58236,0.11096
1413.65378,0.11084
1411.72519,0.11069
1409.79660,0.11030
1407.86802,0.10977
1405.93943,0.10944
1404.01084,0.10890
1402.08226,0.10830
1400.15367,0.10751
1398.22508,0.10653
1396.29650,0.10554
1394.36791,0.10435
1392.43933,0.10349
1390.51074,0.10308
1388.58215,0.10279
1386.65357,0.10223
1384.72498,0.10177
1382.79639,0.10237
1380.86781,0.10350
1378.93922,0.10400
1377.01064,0.10369
1375.08205,0.10289
1373.15346,0.10183
1371.22488,0.10062
1369.29629,0.09917
1367.36770,0.09755
1365.43912,0.09613
1363.51053,0.09474
1361.58194,0.09341
1359.65336,0.09231
1357.72477,0.09116
1355.79619,0.09004
1353.86760,0.08913
1351.93901,0.08850
1350.01043,0.08791
1348.08184,0.08718
1346.15325,0.08656
1344.22467,0.08600
1342.29608,0.08537
1340.36750,0.08480
1338.43891,0.08424
1336.51032,0.08370
1334.58174,0.08337
1332.65315,0.08307
1330.72456,0.08277
1328.79598,0.08246
1326.86739,0.08195
1324.93880,0.08153
1323.01022,0.08131
1321.08163,0.08101
1319.15305,0.08063
1317.22446,0.08032
1315.29587,0.08012
1313.36729,0.07998
1311.43870,0.07973
1309.51011,0.07942
1307.58153,0.07909
1305.65294,0.07884
1303.72435,0.07878
1301.79577,0.07875
1299.86718,0.07874
1297.93860,0.07870
1296.01001,0.07879
1294.08142,0.07926
1292.15284,0.07994
1290.22425,0.08079
1288.29566,0.08183
1286.36708,0.08309
1284.43849,0.08452
1282.50991,0.08597
1280.58132,0.08748
1278.65273,0.08900
1276.72415,0.09063
1274.79556,0.09239
1272.86697,0.09413
1270.93839,0.09589
1269.00980,0.09787
1267.08121,0.10009
1265.15263,0.10242
1263.22404,0.10491
1261.29546,0.10762
1259.36687,0.11079
1257.43828,0.11452
1255.50970,0.11877
1253.58111,0.12363
1251.65252,0.12862
1249.72394,0.13359
1247.79535,0.13874
1245.86677,0.14366
1243.93818,0.14821
1242.00959,0.15242
1240.08101,0.15628
1238.15242,0.15992
1236.22383,0.16331
1234.29525,0.16646
1232.36666,0.16938
1230.43807,0.17206
1228.50949,0.17453
1226.58090,0.17683
1224.65232,0.17913
1222.72373,0.18144
1220.79514,0.18375
1218.86656,0.18607
1216.93797,0.18834
1215.00938,0.19067
1213.08080,0.19300
1211.15221,0.19525
1209.22363,0.19750
1207.29504,0.19982
1205.36645,0.20212
1203.43787,0.20420
1201.50928,0.20622
1199.58069,0.20807
1197.65211,0.20981
1195.72352,0.21155
1193.79493,0.21319
1191.86635,0.21495
1189.93776,0.21674
1188.00918,0.21857
1186.08059,0.22044
1184.15200,0.22218
1182.22342,0.22411
1180.29483,0.22632
1178.36624,0.22883
1176.43766,0.23153
1174.50907,0.23421
1172.58048,0.23705
1170.65190,0.24003
1168.72331,0.24298
1166.79473,0.24609
1164.86614,0.24945
1162.93755,0.25233
1161.00897,0.25415
1159.08038,0.25515
1157.15179,0.25587
1155.22321,0.25696
1153.29462,0.25830
1151.36604,0.25992
1149.43745,0.26197
1147.50886,0.26395
1145.58028,0.26615
1143.65169,0.26876
1141.72310,0.27154
1139.79452,0.27477
1137.86593,0.27843
1135.93734,0.28228
1134.00876,0.28634
1132.08017,0.29049
1130.15159,0.29470
1128.22300,0.29945
1126.29441,0.30501
1124.36583,0.31086
1122.43724,0.31657
1120.50865,0.32234
1118.58007,0.32833
1116.65148,0.33441
1114.72290,0.34070
1112.79431,0.34729
1110.86572,0.35369
1108.93714,0.35971
1107.00855,0.36509
1105.07996,0.36945
1103.15138,0.37309
1101.22279,0.37605
1099.29420,0.37843
1097.36562,0.38013
1095.43703,0.38102
1093.50845,0.38144
1091.57986,0.38149
1089.65127,0.38148
1087.72269,0.38109
1085.79410,0.38014
1083.86551,0.37938
1081.93693,0.37844
1080.00834,0.37694
1078.07976,0.37563
1076.15117,0.37479
1074.22258,0.37388
1072.29400,0.37289
1070.36541,0.37206
1068.43682,0.37158
1066.50824,0.37135
1064.57965,0.37106
1062.65106,0.37068
1060.72248,0.36974
1058.79389,0.36814
1056.86531,0.36658
1054.93672,0.36521
1053.00813,0.36383
1051.07955,0.36271
1049.15096,0.36223
1047.22237,0.36283
1045.29379,0.36444
1043.36520,0.36645
1041.43661,0.36889
1039.50803,0.37155
1037.57944,0.37404
1035.65086,0.37598
1033.72227,0.37680
1031.79368,0.37661
1029.86510,0.37529
1027.93651,0.37283
1026.00792,0.36989
1024.07934,0.36692
1022.15075,0.36390
1020.22217,0.36058
1018.29358,0.35747
1016.36499,0.35462
1014.43641,0.35146
1012.50782,0.34813
1010.57923,0.34466
1008.65065,0.34101
1006.72206,0.33706
1004.79347,0.33282
1002.86489,0.32824
1000.93630,0.32292
999.00772,0.31713
997.07913,0.31137
995.15054,0.30552
993.22196,0.29949
991.29337,0.29339
989.36478,0.28707
987.43620,0.28024
985.50761,0.27250
983.57903,0.26396
981.65044,0.25511
979.72185,0.24584
977.79327,0.23607
975.86468,0.22591
973.93609,0.21548
972.00751,0.20500
970.07892,0.19485
968.15033,0.18515
966.22175,0.17591
964.29316,0.16770
962.36458,0.16032
960.43599,0.15323
958.50740,0.14697
956.57882,0.14153
954.65023,0.13659
952.72164,0.13246
950.79306,0.12899
948.86447,0.12577
946.93589,0.12309
945.00730,0.12124
943.07871,0.11972
941.15013,0.11800
939.22154,0.11626
937.29295,0.11481
935.36437,0.11339
933.43578,0.11205
931.50719,0.11073
929.57861,0.10918
927.65002,0.10788
925.72144,0.10688
923.79285,0.10618
921.86426,0.10586
919.93568,0.10569
918.00709,0.10566
916.07850,0.10523
914.14992,0.10408
912.22133,0.10247
910.29274,0.09980
908.36416,0.09566
906.43557,0.09058
904.50699,0.08477
902.57840,0.07823
900.64981,0.07191
898.72123,0.06607
896.79264,0.06054
894.86405,0.05550
892.93547,0.05075
891.00688,0.04647
889.07830,0.04284
887.14971,0.03976
885.22112,0.03666
883.29254,0.03348
881.36395,0.03036
879.43536,0.02716
877.50678,0.02416
875.57819,0.02108
873.64960,0.01847
871.72102,0.01603
869.79243,0.01294
867.86385,0.01026
865.93526,0.00791
864.00667,0.00571
862.07809,0.00373
860.14950,0.00201
858.22091,0.00079
856.29233,0.00000
854.36374,-0.00025
852.43516,-0.00037
850.50657,-0.00016
848.57798,0.00066
846.64940,0.00204
844.72081,0.00405
842.79222,0.00616
840.86364,0.00889
838.93505,0.01224
837.00646,0.01596
835.07788,0.02005
833.14929,0.02363
831.22071,0.02619
829.29212,0.02757
827.36353,0.02833
825.43495,0.02865
823.50636,0.02904
821.57777,0.02979
819.64919,0.03068
817.72060,0.03231
815.79201,0.03383
813.86343,0.03567
811.93484,0.03901
810.00626,0.04380
808.07767,0.05041
806.14908,0.05825
804.22050,0.06640
802.29191,0.07287
800.36332,0.07551
798.43474,0.07411
796.50615,0.06989
794.57757,0.06448
792.64898,0.05867
790.72039,0.05422
788.79181,0.05195
786.86322,0.05105
784.93463,0.05147
783.00605,0.05294
781.07746,0.05414
779.14887,0.05304
777.22029,0.04926
775.29170,0.04330
773.36312,0.03672
771.43453,0.03163
769.50594,0.02773
767.57736,0.02503
765.64877,0.02400
763.72018,0.02389
761.79160,0.02413
759.86301,0.02437
757.93443,0.02466
756.00584,0.02506
754.07725,0.02487
752.14867,0.02367
750.22008,0.02258
748.29149,0.02163
746.36291,0.01983
744.43432,0.01758
742.50573,0.01509
740.57715,0.01257
738.64856,0.01013
736.71998,0.00770
734.79139,0.00575
732.86280,0.00421
730.93422,0.00377
729.00563,0.00473
727.07704,0.00503
725.14846,0.00445
723.21987,0.00459
721.29129,0.00466
719.36270,0.00388
717.43411,0.00263
715.50553,0.00112
713.57694,0.00000
711.64835,-0.00030
709.71977,0.00095
707.79118,0.00332
705.86259,0.00533
703.93401,0.00757
702.00542,0.01094
700.07684,0.01532
698.14825,0.01993
696.21966,0.02367
694.29108,0.02430
692.36249,0.02083
690.43390,0.01616
688.50532,0.01209
686.57673,0.00921
684.64814,0.00821
682.71956,0.00748
680.79097,0.00608
678.86239,0.00517
676.93380,0.00491
675.00521,0.00470
673.07663,0.00440
671.14804,0.00344
669.21945,0.00173
667.29087,0.00051
665.36228,0.00000
663.43370,-0.00007
661.50511,0.00059
659.57652,0.00047
657.64794,-0.00027
655.71935,-0.00013
653.79076,0.00065
651.86218,0.00184
649.93359,0.00249
648.00500,0.00203
646.07642,0.00138
644.14783,0.00164
642.21925,0.00300
640.29066,0.00399
638.36207,0.00464
636.43349,0.00504
634.50490,0.00450
632.57631,0.00449
630.64773,0.00577
628.71914,0.00725
626.79056,0.00788
624.86197,0.00761
622.93338,0.00756
621.00480,0.00846
619.07621,0.00995
617.14762,0.01171
615.21904,0.01300
613.29045,0.01350
611.36186,0.01411
609.43328,0.01413
607.50469,0.01438
605.57611,0.01548
603.64752,0.01636
601.71893,0.01830
599.79035,0.02104
597.86176,0.02410
595.93317,0.02752
594.00459,0.03017
592.07600,0.03222
590.14742,0.03439
588.21883,0.03758
586.29024,0.04102
584.36166,0.04483
582.43307,0.04967
580.50448,0.05395
578.57590,0.05808
576.64731,0.06232
574.71872,0.06615
572.79014,0.07127
570.86155,0.07750
568.93297,0.08313
567.00438,0.08850
565.07579,0.09374
563.14721,0.09862
561.21862,0.10313
559.29003,0.10824
557.36145,0.11474
555.43286,0.11992
553.50427,0.12336
551.57569,0.12739
549.64710,0.13181
547.71852,0.13503
545.78993,0.13754
543.86134,0.14303
541.93276,0.15133
540.00417,0.15792
538.07558,0.16138
536.14700,0.16516
534.21841,0.16974
532.28983,0.17169
530.36124,0.17334
528.43265,0.17586
526.50407,0.17459
524.57548,0.16984
522.64689,0.16553
520.71831,0.16238
518.78972,0.15912
516.86113,0.15507
514.93255,0.15091
513.00396,0.14540
511.07538,0.13899
509.14679,0.13537
507.21820,0.13245
505.28962,0.13074
503.36103,0.13303
501.43244,0.13485
499.50386,0.13591
497.57527,0.14034
495.64669,0.14679
493.71810,0.15363
491.78951,0.16403
489.86093,0.17774
487.93234,0.19283
486.00375,0.20609
484.07517,0.21504
482.14658,0.22789
480.21799,0.24336
478.28941,0.25284
476.36082,0.25671
474.43224,0.25964
472.50365,0.26023
470.57506,0.25591
468.64648,0.25074
466.71789,0.23868
464.78930,0.22429
462.86072,0.21175
460.93213,0.19827
459.00355,0.18968
457.07496,0.17874
455.14637,0.16341
453.21779,0.15024
451.28920,0.13938
449.36061,0.12958
447.43203,0.12123
445.50344,0.11456
443.57485,0.10649
441.64627,0.10015
439.71768,0.09869
437.78910,0.09578
435.86051,0.09045
433.93192,0.08951
432.00334,0.08847
430.07475,0.08850
428.14616,0.08631
426.21758,0.07223
424.28899,0.06642
422.36040,0.06737
420.43182,0.06215
418.50323,0.05908
416.57465,0.05341
414.64606,0.04064
412.71747,0.02826
410.78889,0.02436
408.86030,0.02703
406.93171,0.02978
405.00313,0.01664
403.07454,0.00000
401.14596,-0.00245
399.21737,0.00000
