3747.24323,0.00000
3745.31464,0.00101
3743.38605,0.00033
3741.45747,0.00061
3739.52888,0.00188
3737.60030,0.00267
3735.67171,0.00309
3733.74312,0.00305
3731.81454,0.00324
3729.88595,0.00386
3727.95736,0.00491
3726.02878,0.00558
3724.10019,0.00614
3722.17161,0.00753
3720.24302,0.00896
3718.31443,0.01068
3716.38585,0.01261
3714.45726,0.01502
3712.52867,0.01754
3710.60009,0.01951
3708.67150,0.02229
3706.74291,0.02548
3704.81433,0.02883
3702.88574,0.03197
3700.95716,0.03448
3699.02857,0.03677
3697.09998,0.03816
3695.17140,0.03892
3693.24281,0.03928
3691.31422,0.03989
3689.38564,0.04081
3687.45705,0.04161
3685.52846,0.04339
3683.59988,0.04598
3681.67129,0.04897
3679.74271,0.05203
3677.81412,0.05561
3675.88553,0.05929
3673.95695,0.06276
3672.02836,0.06713
3670.09977,0.07143
3668.17119,0.07549
3666.24260,0.07998
3664.31402,0.08447
3662.38543,0.08887
3660.45684,0.09319
3658.52826,0.09761
3656.59967,0.10136
3654.67108,0.10444
3652.74250,0.10814
3650.81391,0.11164
3648.88532,0.11435
3646.95674,0.11721
3645.02815,0.12038
3643.09957,0.12350
3641.17098,0.12659
3639.24239,0.12939
3637.31381,0.13208
3635.38522,0.13519
3633.45663,0.13838
3631.52805,0.14149
3629.59946,0.14383
3627.67088,0.14526
3625.74229,0.14711
3623.81370,0.14885
3621.88512,0.14994
3619.95653,0.14987
3618.02794,0.14838
3616.09936,0.14710
3614.17077,0.14603
3612.24218,0.14486
3610.31360,0.14410
3608.38501,0.14312
3606.45643,0.14200
3604.52784,0.14140
3602.59925,0.14085
3600.67067,0.14011
3598.74208,0.13962
3596.81349,0.13928
3594.88491,0.13895
3592.95632,0.13878
3591.02774,0.13877
3589.09915,0.13867
3587.17056,0.13849
3585.24198,0.13857
3583.31339,0.13906
3581.38480,0.13988
3579.45622,0.14053
3577.52763,0.14111
3575.59904,0.14192
3573.67046,0.14267
3571.74187,0.14353
3569.81329,0.14468
3567.88470,0.14575
3565.95611,0.14646
3564.02753,0.14732
3562.09894,0.14860
3560.17035,0.14980
3558.24177,0.15079
3556.31318,0.15184
3554.38459,0.15296
3552.45601,0.15400
3550.52742,0.15513
3548.59884,0.15639
3546.67025,0.15751
3544.74166,0.15841
3542.81308,0.15939
3540.88449,0.16071
3538.95590,0.16197
3537.02732,0.16310
3535.09873,0.16434
3533.17015,0.16557
3531.24156,0.16686
3529.31297,0.16800
3527.38439,0.16898
3525.45580,0.16995
3523.52721,0.17079
3521.59863,0.17176
3519.67004,0.17292
3517.74145,0.17415
3515.81287,0.17539
3513.88428,0.17650
3511.95570,0.17757
3510.02711,0.17865
3508.09852,0.17974
3506.16994,0.18090
3504.24135,0.18224
3502.31276,0.18360
3500.38418,0.18479
3498.45559,0.18579
3496.52701,0.18667
3494.59842,0.18751
3492.66983,0.18856
3490.74125,0.18989
3488.81266,0.19098
3486.88407,0.19171
3484.95549,0.19268
3483.02690,0.19381
3481.09831,0.19471
3479.16973,0.19570
3477.24114,0.19676
3475.31256,0.19773
3473.38397,0.19872
3471.45538,0.19937
3469.52680,0.20010
3467.59821,0.20129
3465.66962,0.20221
3463.74104,0.20292
3461.81245,0.20383
3459.88386,0.20482
3457.95528,0.20567
3456.02669,0.20634
3454.09811,0.20713
3452.16952,0.20810
3450.24093,0.20914
3448.31235,0.21007
3446.38376,0.21076
3444.45517,0.21140
3442.52659,0.21225
3440.59800,0.21301
3438.66942,0.21346
3436.74083,0.21397
3434.81224,0.21472
3432.88366,0.21560
3430.95507,0.21635
3429.02648,0.21690
3427.09790,0.21762
3425.16931,0.21831
3423.24072,0.21878
3421.31214,0.21944
3419.38355,0.22013
3417.45497,0.22055
3415.52638,0.22115
3413.59779,0.22180
3411.66921,0.22210
3409.74062,0.22239
3407.81203,0.22276
3405.88345,0.22311
3403.95486,0.22343
3402.02628,0.22386
3400.09769,0.22434
3398.16910,0.22467
3396.24052,0.22504
3394.31193,0.22533
3392.38334,0.22562
3390.45476,0.22602
3388.52617,0.22630
3386.59758,0.22653
3384.66900,0.22683
3382.74041,0.22715
3380.81183,0.22743
3378.88324,0.22774
3376.95465,0.22801
3375.02607,0.22821
3373.09748,0.22836
3371.16889,0.22848
3369.24031,0.22875
3367.31172,0.22894
3365.38314,0.22917
3363.45455,0.22952
3361.52596,0.22975
3359.59738,0.22995
3357.66879,0.22999
3355.74020,0.23005
3353.81162,0.23035
3351.88303,0.23055
3349.95444,0.23055
3348.02586,0.23046
3346.09727,0.23054
3344.16869,0.23075
3342.24010,0.23085
3340.31151,0.23091
3338.38293,0.23099
3336.45434,0.23090
3334.52575,0.23067
3332.59717,0.23058
3330.66858,0.23066
3328.73999,0.23070
3326.81141,0.23052
3324.88282,0.23039
3322.95424,0.23057
3321.02565,0.23078
3319.09706,0.23066
3317.16848,0.23035
3315.23989,0.23018
3313.31130,0.23005
3311.38272,0.22976
3309.45413,0.22953
3307.52555,0.22951
3305.59696,0.22949
3303.66837,0.22916
3301.73979,0.22880
3299.81120,0.22864
3297.88261,0.22843
3295.95403,0.22820
3294.02544,0.22801
3292.09685,0.22788
3290.16827,0.22751
3288.23968,0.22696
3286.31110,0.22667
3284.38251,0.22622
3282.45392,0.22567
3280.52534,0.22520
3278.59675,0.22468
3276.66816,0.22413
3274.73958,0.22335
3272.81099,0.22261
3270.88241,0.22187
3268.95382,0.22112
3267.02523,0.22037
3265.09665,0.21946
3263.16806,0.21867
3261.23947,0.21787
3259.31089,0.21705
3257.38230,0.21617
3255.45371,0.21504
3253.52513,0.21395
3251.59654,0.21305
3249.66796,0.21228
3247.73937,0.21141
3245.81078,0.21051
3243.88220,0.20965
3241.95361,0.20879
3240.02502,0.20809
3238.09644,0.20733
3236.16785,0.20649
3234.23927,0.20570
3232.31068,0.20484
3230.38209,0.20408
3228.45351,0.20334
3226.52492,0.20252
3224.59633,0.20179
3222.66775,0.20097
3220.73916,0.20014
3218.81057,0.19949
3216.88199,0.19889
3214.95340,0.19830
3213.02482,0.19733
3211.09623,0.19625
3209.16764,0.19549
3207.23906,0.19468
3205.31047,0.19392
3203.38188,0.19321
3201.45330,0.19237
3199.52471,0.19157
3197.59612,0.19082
3195.66754,0.18991
3193.73895,0.18887
3191.81037,0.18816
3189.88178,0.18741
3187.95319,0.18635
3186.02461,0.18541
3184.09602,0.18456
3182.16743,0.18362
3180.23885,0.18263
3178.31026,0.18179
3176.38168,0.18079
3174.45309,0.17970
3172.52450,0.17897
3170.59592,0.17818
3168.66733,0.17729
3166.73874,0.17643
3164.81016,0.17554
3162.88157,0.17476
3160.95298,0.17388
3159.02440,0.17293
3157.09581,0.17207
3155.16723,0.17124
3153.23864,0.17044
3151.31005,0.16955
3149.38147,0.16864
3147.45288,0.16782
3145.52429,0.16691
3143.59571,0.16614
3141.66712,0.16560
3139.73854,0.16490
3137.80995,0.16418
3135.88136,0.16361
3133.95278,0.16297
3132.02419,0.16223
3130.09560,0.16160
3128.16702,0.16102
3126.23843,0.16044
3124.30984,0.15995
3122.38126,0.15936
3120.45267,0.15873
3118.52409,0.15818
3116.59550,0.15762
3114.66691,0.15718
3112.73833,0.15672
3110.80974,0.15615
3108.88115,0.15563
3106.95257,0.15515
3105.02398,0.15459
3103.09540,0.15396
3101.16681,0.15346
3099.23822,0.15307
3097.30964,0.15274
3095.38105,0.15233
3093.45246,0.15165
3091.52388,0.15105
3089.59529,0.15075
3087.66670,0.15039
3085.73812,0.14990
3083.80953,0.14925
3081.88095,0.14852
3079.95236,0.14803
3078.02377,0.14755
3076.09519,0.14699
3074.16660,0.14643
3072.23801,0.14577
3070.30943,0.14535
3068.38084,0.14493
3066.45225,0.14421
3064.52367,0.14353
3062.59508,0.14288
3060.66650,0.14220
3058.73791,0.14145
3056.80932,0.14065
3054.88074,0.13989
3052.95215,0.13923
3051.02356,0.13865
3049.09498,0.13807
3047.16639,0.13742
3045.23781,0.13669
3043.30922,0.13592
3041.38063,0.13522
3039.45205,0.13471
3037.52346,0.13428
3035.59487,0.13378
3033.66629,0.13322
3031.73770,0.13269
3029.80911,0.13225
3027.88053,0.13187
3025.95194,0.13148
3024.02336,0.13114
3022.09477,0.13077
3020.16618,0.13043
3018.23760,0.13033
3016.30901,0.13026
3014.38042,0.13014
3012.45184,0.13013
3010.52325,0.13023
3008.59467,0.13046
3006.66608,0.13070
3004.73749,0.13103
3002.80891,0.13149
3000.88032,0.13181
2998.95173,0.13226
2997.02315,0.13305
2995.09456,0.13389
2993.16597,0.13470
2991.23739,0.13553
2989.30880,0.13655
2987.38022,0.13785
2985.45163,0.13935
2983.52304,0.14103
2981.59446,0.14285
2979.66587,0.14484
2977.73728,0.14695
2975.80870,0.14911
2973.88011,0.15144
2971.95153,0.15407
2970.02294,0.15684
2968.09435,0.15972
2966.16577,0.16267
2964.23718,0.16558
2962.30859,0.16837
2960.38001,0.17090
2958.45142,0.17314
2956.52283,0.17519
2954.59425,0.17716
2952.66566,0.17910
2950.73708,0.18113
2948.80849,0.18352
2946.87990,0.18637
2944.95132,0.19007
2943.02273,0.19475
2941.09414,0.20002
2939.16556,0.20582
2937.23697,0.21183
2935.30838,0.21780
2933.37980,0.22372
2931.45121,0.22929
2929.52263,0.23456
2927.59404,0.23930
2925.66545,0.24293
2923.73687,0.24517
2921.80828,0.24541
2919.87969,0.24340
2917.95111,0.23880
2916.02252,0.23052
2914.09394,0.21933
2912.16535,0.20825
2910.23676,0.19919
2908.30818,0.19219
2906.37959,0.18652
2904.45100,0.18178
2902.52242,0.17793
2900.59383,0.17453
2898.66524,0.17123
2896.73666,0.16798
2894.80807,0.16478
2892.87949,0.16179
2890.95090,0.15891
2889.02231,0.15614
2887.09373,0.15370
2885.16514,0.15149
2883.23655,0.14969
2881.30797,0.14836
2879.37938,0.14747
2877.45080,0.14715
2875.52221,0.14715
2873.59362,0.14727
2871.66504,0.14758
2869.73645,0.14805
2867.80786,0.14888
2865.87928,0.15040
2863.95069,0.15303
2862.02210,0.15706
2860.09352,0.16249
2858.16493,0.16908
2856.23635,0.17605
2854.30776,0.18192
2852.37917,0.18475
2850.45059,0.18229
2848.52200,0.17347
2846.59341,0.16059
2844.66483,0.14748
2842.73624,0.13621
2840.80766,0.12714
2838.87907,0.11993
2836.95048,0.11432
2835.02190,0.10988
2833.09331,0.10610
2831.16472,0.10299
2829.23614,0.10044
2827.30755,0.09818
2825.37896,0.09614
2823.45038,0.09428
2821.52179,0.09253
2819.59321,0.09101
2817.66462,0.08962
2815.73603,0.08821
2813.80745,0.08706
2811.87886,0.08604
2809.95027,0.08492
2808.02169,0.08390
2806.09310,0.08294
2804.16451,0.08192
2802.23593,0.08100
2800.30734,0.08028
2798.37876,0.07964
2796.45017,0.07887
2794.52158,0.07803
2792.59300,0.07728
2790.66441,0.07659
2788.73582,0.07589
2786.80724,0.07519
2784.87865,0.07447
2782.95007,0.07372
2781.02148,0.07314
2779.09289,0.07261
2777.16431,0.07196
2775.23572,0.07143
2773.30713,0.07103
2771.37855,0.07059
2769.44996,0.07016
2767.52137,0.06965
2765.59279,0.06909
2763.66420,0.06858
2761.73562,0.06812
2759.80703,0.06775
2757.87844,0.06747
2755.94986,0.06717
2754.02127,0.06684
2752.09268,0.06636
2750.16410,0.06586
2748.23551,0.06553
2746.30693,0.06530
2744.37834,0.06503
2742.44975,0.06471
2740.52117,0.06445
2738.59258,0.06410
2736.66399,0.06363
2734.73541,0.06327
2732.80682,0.06287
2730.87823,0.06251
2728.94965,0.06225
2727.02106,0.06179
2725.09248,0.06133
2723.16389,0.06100
2721.23530,0.06061
2719.30672,0.06019
2717.37813,0.05975
2715.44954,0.05928
2713.52096,0.05873
2711.59237,0.05818
2709.66379,0.05785
2707.73520,0.05756
2705.80661,0.05722
2703.87803,0.05693
2701.94944,0.05654
2700.02085,0.05617
2698.09227,0.05585
2696.16368,0.05551
2694.23509,0.05526
2692.30651,0.05499
2690.37792,0.05469
2688.44934,0.05437
2686.52075,0.05398
2684.59216,0.05367
2682.66358,0.05342
2680.73499,0.05308
2678.80640,0.05276
2676.87782,0.05248
2674.94923,0.05216
2673.02064,0.05180
2671.09206,0.05143
2669.16347,0.05110
2667.23489,0.05076
2665.30630,0.05043
2663.37771,0.05020
2661.44913,0.04988
2659.52054,0.04950
2657.59195,0.04921
2655.66337,0.04891
2653.73478,0.04859
2651.80620,0.04826
2649.87761,0.04805
2647.94902,0.04788
2646.02044,0.04755
2644.09185,0.04716
2642.16326,0.04679
2640.23468,0.04654
2638.30609,0.04635
2636.37750,0.04611
2634.44892,0.04577
2632.52033,0.04541
2630.59175,0.04515
2628.66316,0.04484
2626.73457,0.04446
2624.80599,0.04411
2622.87740,0.04383
2620.94881,0.04361
2619.02023,0.04336
2617.09164,0.04295
2615.16306,0.04253
2613.23447,0.04229
2611.30588,0.04205
2609.37730,0.04170
2607.44871,0.04133
2605.52012,0.04104
2603.59154,0.04078
2601.66295,0.04036
2599.73436,0.04002
2597.80578,0.03985
2595.87719,0.03966
2593.94861,0.03939
2592.02002,0.03901
2590.09143,0.03861
2588.16285,0.03831
2586.23426,0.03802
2584.30567,0.03765
2582.37709,0.03734
2580.44850,0.03714
2578.51991,0.03688
2576.59133,0.03660
2574.66274,0.03632
2572.73416,0.03600
2570.80557,0.03569
2568.87698,0.03546
2566.94840,0.03525
2565.01981,0.03498
2563.09122,0.03472
2561.16264,0.03444
2559.23405,0.03418
2557.30547,0.03399
2555.37688,0.03376
2553.44829,0.03346
2551.51971,0.03318
2549.59112,0.03297
2547.66253,0.03278
2545.73395,0.03262
2543.80536,0.03244
2541.87677,0.03221
2539.94819,0.03202
2538.01960,0.03186
2536.09102,0.03164
2534.16243,0.03140
2532.23384,0.03117
2530.30526,0.03081
2528.37667,0.03051
2526.44808,0.03033
2524.51950,0.03007
2522.59091,0.02985
2520.66233,0.02964
2518.73374,0.02945
2516.80515,0.02922
2514.87657,0.02894
2512.94798,0.02872
2511.01939,0.02845
2509.09081,0.02819
2507.16222,0.02796
2505.23363,0.02765
2503.30505,0.02735
2501.37646,0.02707
2499.44788,0.02680
2497.51929,0.02662
2495.59070,0.02647
2493.66212,0.02618
2491.73353,0.02585
2489.80494,0.02561
2487.87636,0.02529
2485.94777,0.02497
2484.01919,0.02483
2482.09060,0.02463
2480.16201,0.02431
2478.23343,0.02405
2476.30484,0.02377
2474.37625,0.02344
2472.44767,0.02310
2470.51908,0.02279
2468.59049,0.02254
2466.66191,0.02231
2464.73332,0.02209
2462.80474,0.02187
2460.87615,0.02155
2458.94756,0.02117
2457.01898,0.02079
2455.09039,0.02047
2453.16180,0.02021
2451.23322,0.02005
2449.30463,0.01989
2447.37604,0.01966
2445.44746,0.01940
2443.51887,0.01909
2441.59029,0.01879
2439.66170,0.01852
2437.73311,0.01820
2435.80453,0.01796
2433.87594,0.01781
2431.94735,0.01752
2430.01877,0.01718
2428.09018,0.01689
2426.16160,0.01663
2424.23301,0.01641
2422.30442,0.01605
2420.37584,0.01573
2418.44725,0.01553
2416.51866,0.01525
2414.59008,0.01502
2412.66149,0.01484
2410.73290,0.01457
2408.80432,0.01428
2406.87573,0.01404
2404.94715,0.01381
2403.01856,0.01352
2401.08997,0.01330
2399.16139,0.01310
2397.23280,0.01288
2395.30421,0.01267
2393.37563,0.01246
2391.44704,0.01226
2389.51846,0.01199
2387.58987,0.01171
2385.66128,0.01154
2383.73270,0.01138
2381.80411,0.01119
2379.87552,0.01096
2377.94694,0.01066
2376.01835,0.01043
2374.08976,0.01017
2372.16118,0.00981
2370.23259,0.00949
2368.30401,0.00922
2366.37542,0.00902
2364.44683,0.00885
2362.51825,0.00861
2360.58966,0.00836
2358.66107,0.00809
2356.73249,0.00790
2354.80390,0.00786
2352.87532,0.00789
2350.94673,0.00791
2349.01814,0.00800
2347.08956,0.00802
2345.16097,0.00777
2343.23238,0.00755
2341.30380,0.00745
2339.37521,0.00742
2337.44662,0.00727
2335.51804,0.00689
2333.58945,0.00657
2331.66087,0.00630
2329.73228,0.00616
2327.80369,0.00623
2325.87511,0.00627
2323.94652,0.00620
2322.01793,0.00604
2320.08935,0.00594
2318.16076,0.00586
2316.23217,0.00580
2314.30359,0.00569
2312.37500,0.00557
2310.44642,0.00552
2308.51783,0.00545
2306.58924,0.00529
2304.66066,0.00514
2302.73207,0.00504
2300.80348,0.00496
2298.87490,0.00488
2296.94631,0.00477
2295.01773,0.00467
2293.08914,0.00457
2291.16055,0.00446
2289.23197,0.00437
2287.30338,0.00428
2285.37479,0.00418
2283.44621,0.00403
2281.51762,0.00392
2279.58903,0.00386
2277.66045,0.00374
2275.73186,0.00365
2273.80328,0.00354
2271.87469,0.00346
2269.94610,0.00341
2268.01752,0.00324
2266.08893,0.00307
2264.16034,0.00297
2262.23176,0.00292
2260.30317,0.00285
2258.37459,0.00281
2256.44600,0.00276
2254.51741,0.00261
2252.58883,0.00250
2250.66024,0.00244
2248.73165,0.00236
2246.80307,0.00233
2244.87448,0.00229
2242.94589,0.00223
2241.01731,0.00214
2239.08872,0.00198
2237.16014,0.00193
2235.23155,0.00188
2233.30296,0.00165
2231.37438,0.00156
2229.44579,0.00156
2227.51720,0.00149
2225.58862,0.00146
2223.66003,0.00141
2221.73145,0.00131
2219.80286,0.00121
2217.87427,0.00109
2215.94569,0.00097
2214.01710,0.00094
2212.08851,0.00094
2210.15993,0.00077
2208.23134,0.00063
2206.30275,0.00064
2204.37417,0.00062
2202.44558,0.00054
2200.51700,0.00044
2198.58841,0.00048
2196.65982,0.00056
2194.73124,0.00051
2192.80265,0.00040
2190.87406,0.00036
2188.94548,0.00036
2187.01689,0.00028
2185.08830,0.00020
2183.15972,0.00021
2181.23113,0.00022
2179.30255,0.00021
2177.37396,0.00027
2175.44537,0.00033
2173.51679,0.00028
2171.58820,0.00009
2169.65961,0.00000
2167.73103,0.00010
2165.80244,0.00013
2163.87386,0.00011
2161.94527,0.00014
2160.01668,0.00018
2158.08810,0.00025
2156.15951,0.00026
2154.23092,0.00023
2152.30234,0.00018
2150.37375,0.00010
2148.44516,0.00007
2146.51658,0.00010
2144.58799,0.00012
2142.65941,0.00010
2140.73082,0.00014
2138.80223,0.00023
2136.87365,0.00019
2134.94506,0.00012
2133.01647,0.00016
2131.08789,0.00015
2129.15930,0.00006
2127.23072,0.00000
2125.30213,0.00003
2123.37354,0.00005
2121.44496,0.00000
2119.51637,-0.00002
2117.58778,-0.00008
2115.65920,-0.00013
2113.73061,-0.00011
2111.80202,-0.00012
2109.87344,-0.00005
2107.94485,0.00003
2106.01627,0.00003
2104.08768,-0.00002
2102.15909,-0.00013
2100.23051,-0.00014
2098.30192,-0.00007
2096.37333,0.00001
2094.44475,0.00001
2092.51616,-0.00004
2090.58758,-0.00004
2088.65899,-0.00012
2086.73040,-0.00018
2084.80182,-0.00008
2082.87323,-0.00000
2080.94464,0.00000
2079.01606,0.00002
2077.08747,0.00010
2075.15888,0.00008
2073.23030,0.00003
2071.30171,0.00001
2069.37313,0.00002
2067.44454,0.00009
2065.51595,0.00008
2063.58737,0.00007
2061.65878,0.00008
2059.73019,0.00015
2057.80161,0.00030
2055.87302,0.00033
2053.94443,0.00029
2052.01585,0.00031
2050.08726,0.00037
2048.15868,0.00047
2046.23009,0.00057
2044.30150,0.00065
2042.37292,0.00074
2040.44433,0.00099
2038.51574,0.00124
2036.58716,0.00138
2034.65857,0.00160
2032.72999,0.00185
2030.80140,0.00196
2028.87281,0.00197
2026.94423,0.00203
2025.01564,0.00202
2023.08705,0.00199
2021.15847,0.00205
2019.22988,0.00206
2017.30129,0.00209
2015.37271,0.00217
2013.44412,0.00237
2011.51554,0.00254
2009.58695,0.00265
2007.65836,0.00278
2005.72978,0.00287
2003.80119,0.00302
2001.87260,0.00305
1999.94402,0.00300
1998.01543,0.00301
1996.08685,0.00297
1994.15826,0.00287
1992.22967,0.00279
1990.30109,0.00279
1988.37250,0.00270
1986.44391,0.00257
1984.51533,0.00256
1982.58674,0.00249
1980.65815,0.00240
1978.72957,0.00234
1976.80098,0.00229
1974.87240,0.00228
1972.94381,0.00219
1971.01522,0.00205
1969.08664,0.00185
1967.15805,0.00161
1965.22946,0.00138
1963.30088,0.00121
1961.37229,0.00111
1959.44371,0.00098
1957.51512,0.00087
1955.58653,0.00074
1953.65795,0.00063
1951.72936,0.00063
1949.80077,0.00060
1947.87219,0.00051
1945.94360,0.00049
1944.01501,0.00054
1942.08643,0.00049
1940.15784,0.00027
1938.22926,0.00009
1936.30067,0.00005
1934.37208,0.00003
1932.44350,0.00002
1930.51491,0.00003
1928.58632,-0.00000
1926.65774,-0.00003
1924.72915,0.00000
1922.80056,-0.00007
1920.87198,0.00000
1918.94339,0.00026
1917.01481,0.00042
1915.08622,0.00060
1913.15763,0.00088
1911.22905,0.00114
1909.30046,0.00152
1907.37187,0.00199
1905.44329,0.00248
1903.51470,0.00291
1901.58612,0.00334
1899.65753,0.00380
1897.72894,0.00426
1895.80036,0.00468
1893.87177,0.00499
1891.94318,0.00540
1890.01460,0.00580
1888.08601,0.00601
1886.15742,0.00618
1884.22884,0.00640
1882.30025,0.00670
1880.37167,0.00683
1878.44308,0.00690
1876.51449,0.00698
1874.58591,0.00699
1872.65732,0.00714
1870.72873,0.00722
1868.80015,0.00701
1866.87156,0.00670
1864.94298,0.00643
1863.01439,0.00603
1861.08580,0.00548
1859.15722,0.00495
1857.22863,0.00433
1855.30004,0.00371
1853.37146,0.00305
1851.44287,0.00238
1849.51428,0.00183
1847.58570,0.00139
1845.65711,0.00109
1843.72853,0.00062
1841.79994,0.00032
1839.87135,0.00021
1837.94277,0.00000
1836.01418,-0.00007
1834.08559,-0.00007
1832.15701,-0.00003
1830.22842,-0.00005
1828.29984,-0.00006
1826.37125,0.00020
1824.44266,0.00042
1822.51408,0.00072
1820.58549,0.00113
1818.65690,0.00158
1816.72832,0.00208
1814.79973,0.00274
1812.87114,0.00350
1810.94256,0.00423
1809.01397,0.00515
1807.08539,0.00614
1805.15680,0.00721
1803.22821,0.00850
1801.29963,0.00989
1799.37104,0.01129
1797.44245,0.01278
1795.51387,0.01460
1793.58528,0.01655
1791.65669,0.01830
1789.72811,0.02018
1787.79952,0.02235
1785.87094,0.02447
1783.94235,0.02665
1782.01376,0.02887
1780.08518,0.03094
1778.15659,0.03300
1776.22800,0.03503
1774.29942,0.03723
1772.37083,0.03932
1770.44225,0.04117
1768.51366,0.04311
1766.58507,0.04501
1764.65649,0.04723
1762.72790,0.04943
1760.79931,0.05142
1758.87073,0.05385
1756.94214,0.05647
1755.01355,0.05936
1753.08497,0.06263
1751.15638,0.06598
1749.22780,0.06952
1747.29921,0.07361
1745.37062,0.07812
1743.44204,0.08282
1741.51345,0.08762
1739.58486,0.09226
1737.65628,0.09666
1735.72769,0.10085
1733.79911,0.10429
1731.87052,0.10729
1729.94193,0.11055
1728.01335,0.11349
1726.08476,0.11642
1724.15617,0.11955
1722.22759,0.12263
1720.29900,0.12592
1718.37041,0.12890
1716.44183,0.13150
1714.51324,0.13400
1712.58466,0.13640
1710.65607,0.13876
1708.72748,0.14092
1706.79890,0.14309
1704.87031,0.14521
1702.94172,0.14775
1701.01314,0.15046
1699.08455,0.15284
1697.15596,0.15578
1695.22738,0.15866
1693.29879,0.16148
1691.37021,0.16476
1689.44162,0.16791
1687.51303,0.17132
1685.58445,0.17474
1683.65586,0.17769
1681.72727,0.18102
1679.79869,0.18466
1677.87010,0.18817
1675.94152,0.19141
1674.01293,0.19450
1672.08434,0.19768
1670.15576,0.20043
1668.22717,0.20288
1666.29858,0.20520
1664.37000,0.20733
1662.44141,0.20907
1660.51282,0.21020
1658.58424,0.21106
1656.65565,0.21182
1654.72707,0.21246
1652.79848,0.21165
1650.86989,0.21061
1648.94131,0.21070
1647.01272,0.21003
1645.08413,0.20883
1643.15555,0.20817
1641.22696,0.20782
1639.29838,0.20759
1637.36979,0.20755
1635.44120,0.20701
1633.51262,0.20621
1631.58403,0.20587
1629.65544,0.20496
1627.72686,0.20357
1625.79827,0.20176
1623.86968,0.19954
1621.94110,0.19714
1620.01251,0.19500
1618.08393,0.19328
1616.15534,0.19084
1614.22675,0.18851
1612.29817,0.18661
1610.36958,0.18463
1608.44099,0.18273
1606.51241,0.18107
1604.58382,0.17974
1602.65524,0.17813
1600.72665,0.17643
1598.79806,0.17463
1596.86948,0.17283
1594.94089,0.17118
1593.01230,0.16930
1591.08372,0.16731
1589.15513,0.16511
1587.22654,0.16292
1585.29796,0.16080
1583.36937,0.15867
1581.44079,0.15647
1579.51220,0.15456
1577.58361,0.15306
1575.65503,0.15110
1573.72644,0.14962
1571.79785,0.14885
1569.86927,0.14786
1567.94068,0.14704
1566.01209,0.14678
1564.08351,0.14667
1562.15492,0.14691
1560.22634,0.14719
1558.29775,0.14669
1556.36916,0.14674
1554.44058,0.14721
1552.51199,0.14731
1550.58340,0.14739
1548.65482,0.14723
1546.72623,0.14708
1544.79765,0.14682
1542.86906,0.14649
1540.94047,0.14589
1539.01189,0.14437
1537.08330,0.14348
1535.15471,0.14294
1533.22613,0.14180
1531.29754,0.14041
1529.36895,0.13912
1527.44037,0.13779
1525.51178,0.13636
1523.58320,0.13554
1521.65461,0.13485
1519.72602,0.13426
1517.79744,0.13405
1515.86885,0.13308
1513.94026,0.13124
1512.01168,0.12872
1510.08309,0.12589
1508.15451,0.12300
1506.22592,0.11888
1504.29733,0.11449
1502.36875,0.11092
1500.44016,0.10730
1498.51157,0.10363
1496.58299,0.09989
1494.65440,0.09622
1492.72581,0.09331
1490.79723,0.09076
1488.86864,0.08838
1486.94006,0.08674
1485.01147,0.08574
1483.08288,0.08542
1481.15430,0.08590
1479.22571,0.08711
1477.29712,0.08934
1475.36854,0.09296
1473.43995,0.09816
1471.51137,0.10463
1469.58278,0.11132
1467.65419,0.11671
1465.72561,0.11976
1463.79702,0.12122
1461.86843,0.12195
1459.93985,0.12274
1458.01126,0.12382
1456.08267,0.12428
1454.15409,0.12433
1452.22550,0.12414
1450.29692,0.12377
1448.36833,0.12340
1446.43974,0.12295
1444.51116,0.12263
1442.58257,0.12229
1440.65398,0.12208
1438.72540,0.12209
1436.79681,0.12207
1434.86822,0.12208
1432.93964,0.12218
1431.01105,0.12216
1429.08247,0.12212
1427.15388,0.12238
1425.22529,0.12272
1423.29671,0.12318
1421.36812,0.12389
1419.43953,0.12444
1417.51095,0.12475
1415.58236,0.12504
1413.65378,0.12506
1411.72519,0.12475
1409.79660,0.12461
1407.86802,0.12460
1405.93943,0.12449
1404.01084,0.12428
1402.08226,0.12391
1400.15367,0.12304
1398.22508,0.12170
1396.29650,0.12042
1394.36791,0.11907
1392.43933,0.11785
1390.51074,0.11720
1388.58215,0.11662
1386.65357,0.11558
1384.72498,0.11471
1382.79639,0.11510
1380.86781,0.11613
1378.93922,0.11649
1377.01064,0.11610
1375.08205,0.11514
1373.15346,0.11384
1371.22488,0.11252
1369.29629,0.11109
1367.36770,0.10963
1365.43912,0.10821
1363.51053,0.10651
1361.58194,0.10476
1359.65336,0.10345
1357.72477,0.10244
1355.79619,0.10152
1353.86760,0.10061
1351.93901,0.09972
1350.01043,0.09888
1348.08184,0.09812
1346.15325,0.09741
1344.22467,0.09680
1342.29608,0.09632
1340.36750,0.09582
1338.43891,0.09526
1336.51032,0.09468
1334.58174,0.09415
1332.65315,0.09369
1330.72456,0.09338
1328.79598,0.09309
1326.86739,0.09269
1324.93880,0.09237
1323.01022,0.09207
1321.08163,0.09169
1319.15305,0.09137
1317.22446,0.09109
1315.29587,0.09077
1313.36729,0.09051
1311.43870,0.09034
1309.51011,0.09010
1307.58153,0.08987
1305.65294,0.08967
1303.72435,0.08947
1301.79577,0.08938
1299.86718,0.08934
1297.93860,0.08951
1296.01001,0.08985
1294.08142,0.09022
1292.15284,0.09082
1290.22425,0.09168
1288.29566,0.09284
1286.36708,0.09437
1284.43849,0.09615
1282.50991,0.09786
1280.58132,0.09941
1278.65273,0.10116
1276.72415,0.10320
1274.79556,0.10542
1272.86697,0.10753
1270.93839,0.10952
1269.00980,0.11178
1267.08121,0.11403
1265.15263,0.11635
1263.22404,0.11921
1261.29546,0.12235
1259.36687,0.12578
1257.43828,0.12985
1255.50970,0.13477
1253.58111,0.14023
1251.65252,0.14574
1249.72394,0.15134
1247.79535,0.15711
1245.86677,0.16262
1243.93818,0.16777
1242.00959,0.17281
1240.08101,0.17740
1238.15242,0.18155
1236.22383,0.18550
1234.29525,0.18896
1232.36666,0.19213
1230.43807,0.19523
1228.50949,0.19820
1226.58090,0.20095
1224.65232,0.20339
1222.72373,0.20581
1220.79514,0.20824
1218.86656,0.21055
1216.93797,0.21286
1215.00938,0.21519
1213.08080,0.21756
1211.15221,0.21984
1209.22363,0.22200
1207.29504,0.22409
1205.36645,0.22601
1203.43787,0.22793
1201.50928,0.23005
1199.58069,0.23196
1197.65211,0.23351
1195.72352,0.23515
1193.79493,0.23686
1191.86635,0.23858
1189.93776,0.24053
1188.00918,0.24241
1186.08059,0.24403
1184.15200,0.24589
1182.22342,0.24777
1180.29483,0.24976
1178.36624,0.25244
1176.43766,0.25526
1174.50907,0.25801
1172.58048,0.26100
1170.65190,0.26421
1168.72331,0.26746
1166.79473,0.27059
1164.86614,0.27356
1162.93755,0.27614
1161.00897,0.27809
1159.08038,0.27946
1157.15179,0.28070
1155.22321,0.28211
1153.29462,0.28351
1151.36604,0.28526
1149.43745,0.28743
1147.50886,0.28982
1145.58028,0.29254
1143.65169,0.29564
1141.72310,0.29913
1139.79452,0.30287
1137.86593,0.30682
1135.93734,0.31086
1134.00876,0.31521
1132.08017,0.31978
1130.15159,0.32402
1128.22300,0.32932
1126.29441,0.33593
1124.36583,0.34226
1122.43724,0.34847
1120.50865,0.35465
1118.58007,0.36101
1116.65148,0.36801
1114.72290,0.37516
1112.79431,0.38199
1110.86572,0.38856
1108.93714,0.39500
1107.00855,0.40060
1105.07996,0.40558
1103.15138,0.40985
1101.22279,0.41246
1099.29420,0.41453
1097.36562,0.41603
1095.43703,0.41642
1093.50845,0.41602
1091.57986,0.41517
1089.65127,0.41463
1087.72269,0.41409
1085.79410,0.41309
1083.86551,0.41126
1081.93693,0.40911
1080.00834,0.40696
1078.07976,0.40461
1076.15117,0.40296
1074.22258,0.40139
1072.29400,0.39933
1070.36541,0.39756
1068.43682,0.39648
1066.50824,0.39524
1064.57965,0.39377
1062.65106,0.39302
1060.72248,0.39174
1058.79389,0.38935
1056.86531,0.38643
1054.93672,0.38365
1053.00813,0.38148
1051.07955,0.37980
1049.15096,0.37909
1047.22237,0.37903
1045.29379,0.37977
1043.36520,0.38160
1041.43661,0.38336
1039.50803,0.38512
1037.57944,0.38735
1035.65086,0.38902
1033.72227,0.38923
1031.79368,0.38855
1029.86510,0.38696
1027.93651,0.38399
1026.00792,0.38033
1024.07934,0.37656
1022.15075,0.37275
1020.22217,0.36892
1018.29358,0.36509
1016.36499,0.36163
1014.43641,0.35826
1012.50782,0.35433
1010.57923,0.35055
1008.65065,0.34685
1006.72206,0.34234
1004.79347,0.33715
1002.86489,0.33128
1000.93630,0.32519
999.00772,0.31908
997.07913,0.31286
995.15054,0.30659
993.22196,0.29995
991.29337,0.29324
989.36478,0.28628
987.43620,0.27887
985.50761,0.27087
983.57903,0.26215
981.65044,0.25301
979.72185,0.24317
977.79327,0.23280
975.86468,0.22214
973.93609,0.21140
972.00751,0.20091
970.07892,0.19086
968.15033,0.18152
966.22175,0.17280
964.29316,0.16466
962.36458,0.15717
960.43599,0.15065
958.50740,0.14494
956.57882,0.13966
954.65023,0.13508
952.72164,0.13112
950.79306,0.12787
948.86447,0.12512
946.93589,0.12258
945.00730,0.12035
943.07871,0.11845
941.15013,0.11721
939.22154,0.11593
937.29295,0.11431
935.36437,0.11273
933.43578,0.11121
931.50719,0.10991
929.57861,0.10859
927.65002,0.10752
925.72144,0.10658
923.79285,0.10551
921.86426,0.10484
919.93568,0.10457
918.00709,0.10453
916.07850,0.10430
914.14992,0.10302
912.22133,0.10074
910.29274,0.09781
908.36416,0.09384
906.43557,0.08872
904.50699,0.08282
902.57840,0.07655
900.64981,0.07012
898.72123,0.06385
896.79264,0.05843
894.86405,0.05367
892.93547,0.04938
891.00688,0.04555
889.07830,0.04163
887.14971,0.03790
885.22112,0.03466
883.29254,0.03200
881.36395,0.02954
879.43536,0.02663
877.50678,0.02335
875.57819,0.02008
873.64960,0.01733
871.72102,0.01469
869.79243,0.01208
867.86385,0.00999
865.93526,0.00790
864.00667,0.00541
862.07809,0.00315
860.14950,0.00165
858.22091,0.00047
856.29233,0.00000
854.36374,-0.00008
852.43516,-0.00042
850.50657,0.00004
848.57798,0.00115
846.64940,0.00234
844.72081,0.00407
842.79222,0.00651
840.86364,0.00978
838.93505,0.01360
837.00646,0.01748
835.07788,0.02064
833.14929,0.02333
831.22071,0.02596
829.29212,0.02797
827.36353,0.02920
825.43495,0.02994
823.50636,0.03103
821.57777,0.03222
819.64919,0.03308
817.72060,0.03424
815.79201,0.03593
813.86343,0.03839
811.93484,0.04147
810.00626,0.04506
808.07767,0.05044
806.14908,0.05799
804.22050,0.06539
802.29191,0.07036
800.36332,0.07249
798.43474,0.07161
796.50615,0.06802
794.57757,0.06262
792.64898,0.05713
790.72039,0.05308
788.79181,0.05033
786.86322,0.04942
784.93463,0.05023
783.00605,0.05077
781.07746,0.05074
779.14887,0.04963
777.22029,0.04494
775.29170,0.03805
773.36312,0.03263
771.43453,0.02843
769.50594,0.02453
767.57736,0.02235
765.64877,0.02157
763.72018,0.02113
761.79160,0.02126
759.86301,0.02167
757.93443,0.02222
756.00584,0.02221
754.07725,0.02152
752.14867,0.02135
750.22008,0.02110
748.29149,0.02031
746.36291,0.01900
744.43432,0.01660
742.50573,0.01360
740.57715,0.01077
738.64856,0.00854
736.71998,0.00674
734.79139,0.00526
732.86280,0.00391
730.93422,0.00283
729.00563,0.00327
727.07704,0.00428
725.14846,0.00471
723.21987,0.00526
721.29129,0.00544
719.36270,0.00458
717.43411,0.00285
715.50553,0.00127
713.57694,0.00046
711.64835,0.00000
709.71977,0.00097
707.79118,0.00304
705.86259,0.00442
703.93401,0.00624
702.00542,0.00892
700.07684,0.01253
698.14825,0.01732
696.21966,0.02004
694.29108,0.01956
692.36249,0.01763
690.43390,0.01413
688.50532,0.01040
686.57673,0.00789
684.64814,0.00659
682.71956,0.00640
680.79097,0.00605
678.86239,0.00508
676.93380,0.00361
675.00521,0.00240
673.07663,0.00221
671.14804,0.00182
669.21945,0.00067
667.29087,0.00000
665.36228,0.00027
663.43370,0.00029
661.50511,0.00041
659.57652,0.00084
657.64794,0.00072
655.71935,0.00102
653.79076,0.00198
651.86218,0.00287
649.93359,0.00315
648.00500,0.00344
646.07642,0.00416
644.14783,0.00374
642.21925,0.00369
640.29066,0.00489
638.36207,0.00587
636.43349,0.00635
634.50490,0.00602
632.57631,0.00634
630.64773,0.00752
628.71914,0.00765
626.79056,0.00740
624.86197,0.00893
622.93338,0.01103
621.00480,0.01079
619.07621,0.01017
617.14762,0.01160
615.21904,0.01371
613.29045,0.01520
611.36186,0.01589
609.43328,0.01735
607.50469,0.02006
605.57611,0.02120
603.64752,0.02165
601.71893,0.02388
599.79035,0.02596
597.86176,0.02830
595.93317,0.03157
594.00459,0.03434
592.07600,0.03780
590.14742,0.04097
588.21883,0.04271
586.29024,0.04552
584.36166,0.04913
582.43307,0.05200
580.50448,0.05663
578.57590,0.06358
576.64731,0.06871
574.71872,0.07115
572.79014,0.07531
570.86155,0.08284
568.93297,0.08944
567.00438,0.09392
565.07579,0.09946
563.14721,0.10511
561.21862,0.10889
559.29003,0.11327
557.36145,0.11922
555.43286,0.12360
553.50427,0.12686
551.57569,0.13177
549.64710,0.13732
547.71852,0.14233
545.78993,0.14746
543.86134,0.15083
541.93276,0.15546
540.00417,0.16458
538.07558,0.16968
536.14700,0.17226
534.21841,0.17595
532.28983,0.17698
530.36124,0.18019
528.43265,0.18199
526.50407,0.18011
524.57548,0.17766
522.64689,0.17240
520.71831,0.16836
518.78972,0.16372
516.86113,0.15648
514.93255,0.15168
513.00396,0.14801
511.07538,0.14344
509.14679,0.13927
507.21820,0.13777
505.28962,0.13797
503.36103,0.13841
501.43244,0.14077
499.50386,0.14413
497.57527,0.14929
495.64669,0.15883
493.71810,0.16906
491.78951,0.17666
489.86093,0.18702
487.93234,0.20306
486.00375,0.21961
484.07517,0.23344
482.14658,0.24595
480.21799,0.25867
478.28941,0.26985
476.36082,0.27707
474.43224,0.27977
472.50365,0.27675
470.57506,0.27345
468.64648,0.26947
466.71789,0.25865
464.78930,0.24741
462.86072,0.23417
460.93213,0.21851
459.00355,0.20502
457.07496,0.19469
455.14637,0.18311
453.21779,0.16528
451.28920,0.15227
449.36061,0.14708
447.43203,0.14057
445.50344,0.12925
443.57485,0.11960
441.64627,0.11150
439.71768,0.10566
437.78910,0.10561
435.86051,0.09916
433.93192,0.09371
432.00334,0.09068
430.07475,0.08889
428.14616,0.09222
426.21758,0.08537
424.28899,0.08096
422.36040,0.07929
420.43182,0.07121
418.50323,0.05951
416.57465,0.04832
414.64606,0.04342
412.71747,0.03696
410.78889,0.03452
408.86030,0.02872
406.93171,0.01667
405.00313,0.00717
403.07454,0.00793
401.14596,0.01232
399.21737,0.00000
