3747.24323,0.00008
3745.31464,0.00218
3743.38605,0.00016
3741.45747,0.00000
3739.52888,0.00266
3737.60030,0.00360
3735.67171,0.00341
3733.74312,0.00326
3731.81454,0.00343
3729.88595,0.00373
3727.95736,0.00521
3726.02878,0.00635
3724.10019,0.00683
3722.17161,0.00830
3720.24302,0.00937
3718.31443,0.01120
3716.38585,0.01347
3714.45726,0.01643
3712.52867,0.01942
3710.60009,0.02083
3708.67150,0.02363
3706.74291,0.02693
3704.81433,0.03072
3702.88574,0.03432
3700.95716,0.03647
3699.02857,0.03883
3697.09998,0.04019
3695.17140,0.04108
3693.24281,0.04170
3691.31422,0.04280
3689.38564,0.04362
3687.45705,0.04328
3685.52846,0.04525
3683.59988,0.04840
3681.67129,0.05156
3679.74271,0.05482
3677.81412,0.05911
3675.88553,0.06273
3673.95695,0.06493
3672.02836,0.07020
3670.09977,0.07449
3668.17119,0.07730
3666.24260,0.08224
3664.31402,0.08695
3662.38543,0.09155
3660.45684,0.09573
3658.52826,0.10008
3656.59967,0.10381
3654.67108,0.10640
3652.74250,0.11086
3650.81391,0.11489
3648.88532,0.11677
3646.95674,0.11862
3645.02815,0.12186
3643.09957,0.12538
3641.17098,0.12816
3639.24239,0.13083
3637.31381,0.13356
3635.38522,0.13685
3633.45663,0.13991
3631.52805,0.14357
3629.59946,0.14637
3627.67088,0.14615
3625.74229,0.14757
3623.81370,0.14977
3621.88512,0.15082
3619.95653,0.15076
3618.02794,0.14870
3616.09936,0.14738
3614.17077,0.14660
3612.24218,0.14546
3610.31360,0.14450
3608.38501,0.14308
3606.45643,0.14185
3604.52784,0.14145
3602.59925,0.14142
3600.67067,0.14084
3598.74208,0.14004
3596.81349,0.13967
3594.88491,0.13927
3592.95632,0.13883
3591.02774,0.13910
3589.09915,0.13954
3587.17056,0.13894
3585.24198,0.13865
3583.31339,0.13943
3581.38480,0.14004
3579.45622,0.14052
3577.52763,0.14119
3575.59904,0.14199
3573.67046,0.14283
3571.74187,0.14381
3569.81329,0.14503
3567.88470,0.14586
3565.95611,0.14622
3564.02753,0.14714
3562.09894,0.14849
3560.17035,0.14966
3558.24177,0.15080
3556.31318,0.15183
3554.38459,0.15281
3552.45601,0.15377
3550.52742,0.15487
3548.59884,0.15627
3546.67025,0.15736
3544.74166,0.15814
3542.81308,0.15911
3540.88449,0.16015
3538.95590,0.16131
3537.02732,0.16269
3535.09873,0.16391
3533.17015,0.16498
3531.24156,0.16613
3529.31297,0.16711
3527.38439,0.16802
3525.45580,0.16900
3523.52721,0.16999
3521.59863,0.17119
3519.67004,0.17231
3517.74145,0.17307
3515.81287,0.17392
3513.88428,0.17515
3511.95570,0.17646
3510.02711,0.17760
3508.09852,0.17859
3506.16994,0.17964
3504.24135,0.18072
3502.31276,0.18156
3500.38418,0.18245
3498.45559,0.18346
3496.52701,0.18455
3494.59842,0.18572
3492.66983,0.18670
3490.74125,0.18757
3488.81266,0.18851
3486.88407,0.18947
3484.95549,0.19040
3483.02690,0.19136
3481.09831,0.19223
3479.16973,0.19308
3477.24114,0.19386
3475.31256,0.19456
3473.38397,0.19535
3471.45538,0.19609
3469.52680,0.19696
3467.59821,0.19791
3465.66962,0.19868
3463.74104,0.19943
3461.81245,0.20016
3459.88386,0.20086
3457.95528,0.20142
3456.02669,0.20221
3454.09811,0.20321
3452.16952,0.20416
3450.24093,0.20505
3448.31235,0.20571
3446.38376,0.20631
3444.45517,0.20667
3442.52659,0.20719
3440.59800,0.20815
3438.66942,0.20878
3436.74083,0.20922
3434.81224,0.20966
3432.88366,0.21030
3430.95507,0.21125
3429.02648,0.21200
3427.09790,0.21241
3425.16931,0.21279
3423.24072,0.21336
3421.31214,0.21401
3419.38355,0.21446
3417.45497,0.21461
3415.52638,0.21503
3413.59779,0.21583
3411.66921,0.21644
3409.74062,0.21673
3407.81203,0.21688
3405.88345,0.21736
3403.95486,0.21795
3402.02628,0.21822
3400.09769,0.21859
3398.16910,0.21891
3396.24052,0.21901
3394.31193,0.21918
3392.38334,0.21929
3390.45476,0.21945
3388.52617,0.21999
3386.59758,0.22054
3384.66900,0.22078
3382.74041,0.22080
3380.81183,0.22083
3378.88324,0.22114
3376.95465,0.22147
3375.02607,0.22169
3373.09748,0.22187
3371.16889,0.22201
3369.24031,0.22237
3367.31172,0.22282
3365.38314,0.22300
3363.45455,0.22299
3361.52596,0.22323
3359.59738,0.22366
3357.66879,0.22397
3355.74020,0.22416
3353.81162,0.22441
3351.88303,0.22452
3349.95444,0.22446
3348.02586,0.22456
3346.09727,0.22459
3344.16869,0.22455
3342.24010,0.22459
3340.31151,0.22469
3338.38293,0.22487
3336.45434,0.22493
3334.52575,0.22491
3332.59717,0.22479
3330.66858,0.22483
3328.73999,0.22494
3326.81141,0.22479
3324.88282,0.22473
3322.95424,0.22475
3321.02565,0.22474
3319.09706,0.22466
3317.16848,0.22460
3315.23989,0.22444
3313.31130,0.22416
3311.38272,0.22414
3309.45413,0.22401
3307.52555,0.22382
3305.59696,0.22359
3303.66837,0.22319
3301.73979,0.22313
3299.81120,0.22309
3297.88261,0.22289
3295.95403,0.22263
3294.02544,0.22222
3292.09685,0.22183
3290.16827,0.22148
3288.23968,0.22128
3286.31110,0.22101
3284.38251,0.22046
3282.45392,0.21990
3280.52534,0.21936
3278.59675,0.21881
3276.66816,0.21830
3274.73958,0.21772
3272.81099,0.21693
3270.88241,0.21613
3268.95382,0.21537
3267.02523,0.21457
3265.09665,0.21377
3263.16806,0.21288
3261.23947,0.21196
3259.31089,0.21099
3257.38230,0.20996
3255.45371,0.20924
3253.52513,0.20863
3251.59654,0.20761
3249.66796,0.20642
3247.73937,0.20547
3245.81078,0.20474
3243.88220,0.20398
3241.95361,0.20305
3240.02502,0.20232
3238.09644,0.20172
3236.16785,0.20091
3234.23927,0.20004
3232.31068,0.19914
3230.38209,0.19846
3228.45351,0.19800
3226.52492,0.19738
3224.59633,0.19654
3222.66775,0.19564
3220.73916,0.19478
3218.81057,0.19396
3216.88199,0.19316
3214.95340,0.19235
3213.02482,0.19161
3211.09623,0.19094
3209.16764,0.19012
3207.23906,0.18939
3205.31047,0.18882
3203.38188,0.18806
3201.45330,0.18710
3199.52471,0.18616
3197.59612,0.18550
3195.66754,0.18485
3193.73895,0.18392
3191.81037,0.18305
3189.88178,0.18231
3187.95319,0.18166
3186.02461,0.18095
3184.09602,0.17995
3182.16743,0.17884
3180.23885,0.17784
3178.31026,0.17700
3176.38168,0.17627
3174.45309,0.17542
3172.52450,0.17447
3170.59592,0.17365
3168.66733,0.17298
3166.73874,0.17225
3164.81016,0.17133
3162.88157,0.17035
3160.95298,0.16943
3159.02440,0.16873
3157.09581,0.16810
3155.16723,0.16716
3153.23864,0.16629
3151.31005,0.16566
3149.38147,0.16485
3147.45288,0.16402
3145.52429,0.16337
3143.59571,0.16280
3141.66712,0.16223
3139.73854,0.16143
3137.80995,0.16055
3135.88136,0.15995
3133.95278,0.15941
3132.02419,0.15866
3130.09560,0.15794
3128.16702,0.15744
3126.23843,0.15704
3124.30984,0.15659
3122.38126,0.15607
3120.45267,0.15550
3118.52409,0.15492
3116.59550,0.15434
3114.66691,0.15397
3112.73833,0.15363
3110.80974,0.15313
3108.88115,0.15273
3106.95257,0.15237
3105.02398,0.15200
3103.09540,0.15161
3101.16681,0.15110
3099.23822,0.15065
3097.30964,0.15015
3095.38105,0.14970
3093.45246,0.14932
3091.52388,0.14892
3089.59529,0.14854
3087.66670,0.14820
3085.73812,0.14783
3083.80953,0.14729
3081.88095,0.14672
3079.95236,0.14620
3078.02377,0.14570
3076.09519,0.14525
3074.16660,0.14474
3072.23801,0.14436
3070.30943,0.14390
3068.38084,0.14327
3066.45225,0.14272
3064.52367,0.14208
3062.59508,0.14132
3060.66650,0.14067
3058.73791,0.14010
3056.80932,0.13939
3054.88074,0.13869
3052.95215,0.13802
3051.02356,0.13734
3049.09498,0.13674
3047.16639,0.13608
3045.23781,0.13546
3043.30922,0.13488
3041.38063,0.13427
3039.45205,0.13380
3037.52346,0.13331
3035.59487,0.13275
3033.66629,0.13227
3031.73770,0.13186
3029.80911,0.13149
3027.88053,0.13114
3025.95194,0.13074
3024.02336,0.13030
3022.09477,0.12995
3020.16618,0.12974
3018.23760,0.12955
3016.30901,0.12931
3014.38042,0.12922
3012.45184,0.12939
3010.52325,0.12956
3008.59467,0.12967
3006.66608,0.12985
3004.73749,0.13019
3002.80891,0.13065
3000.88032,0.13105
2998.95173,0.13146
2997.02315,0.13208
2995.09456,0.13283
2993.16597,0.13373
2991.23739,0.13484
2989.30880,0.13602
2987.38022,0.13729
2985.45163,0.13871
2983.52304,0.14041
2981.59446,0.14237
2979.66587,0.14437
2977.73728,0.14642
2975.80870,0.14858
2973.88011,0.15087
2971.95153,0.15334
2970.02294,0.15605
2968.09435,0.15880
2966.16577,0.16154
2964.23718,0.16437
2962.30859,0.16714
2960.38001,0.16963
2958.45142,0.17178
2956.52283,0.17377
2954.59425,0.17551
2952.66566,0.17719
2950.73708,0.17926
2948.80849,0.18159
2946.87990,0.18438
2944.95132,0.18793
2943.02273,0.19234
2941.09414,0.19743
2939.16556,0.20276
2937.23697,0.20825
2935.30838,0.21385
2933.37980,0.21936
2931.45121,0.22457
2929.52263,0.22939
2927.59404,0.23355
2925.66545,0.23659
2923.73687,0.23820
2921.80828,0.23810
2919.87969,0.23608
2917.95111,0.23137
2916.02252,0.22323
2914.09394,0.21294
2912.16535,0.20308
2910.23676,0.19509
2908.30818,0.18880
2906.37959,0.18381
2904.45100,0.17966
2902.52242,0.17594
2900.59383,0.17254
2898.66524,0.16936
2896.73666,0.16639
2894.80807,0.16348
2892.87949,0.16066
2890.95090,0.15807
2889.02231,0.15551
2887.09373,0.15308
2885.16514,0.15100
2883.23655,0.14930
2881.30797,0.14807
2879.37938,0.14724
2877.45080,0.14673
2875.52221,0.14666
2873.59362,0.14694
2871.66504,0.14735
2869.73645,0.14791
2867.80786,0.14867
2865.87928,0.14999
2863.95069,0.15246
2862.02210,0.15630
2860.09352,0.16131
2858.16493,0.16741
2856.23635,0.17385
2854.30776,0.17876
2852.37917,0.18042
2850.45059,0.17729
2848.52200,0.16888
2846.59341,0.15718
2844.66483,0.14530
2842.73624,0.13517
2840.80766,0.12689
2838.87907,0.12011
2836.95048,0.11467
2835.02190,0.11032
2833.09331,0.10683
2831.16472,0.10388
2829.23614,0.10132
2827.30755,0.09908
2825.37896,0.09712
2823.45038,0.09531
2821.52179,0.09361
2819.59321,0.09212
2817.66462,0.09078
2815.73603,0.08955
2813.80745,0.08829
2811.87886,0.08719
2809.95027,0.08630
2808.02169,0.08534
2806.09310,0.08432
2804.16451,0.08324
2802.23593,0.08233
2800.30734,0.08167
2798.37876,0.08085
2796.45017,0.07994
2794.52158,0.07922
2792.59300,0.07865
2790.66441,0.07804
2788.73582,0.07727
2786.80724,0.07652
2784.87865,0.07595
2782.95007,0.07532
2781.02148,0.07465
2779.09289,0.07416
2777.16431,0.07368
2775.23572,0.07305
2773.30713,0.07240
2771.37855,0.07192
2769.44996,0.07161
2767.52137,0.07118
2765.59279,0.07057
2763.66420,0.07011
2761.73562,0.06980
2759.80703,0.06943
2757.87844,0.06911
2755.94986,0.06874
2754.02127,0.06829
2752.09268,0.06793
2750.16410,0.06762
2748.23551,0.06734
2746.30693,0.06701
2744.37834,0.06666
2742.44975,0.06632
2740.52117,0.06600
2738.59258,0.06572
2736.66399,0.06535
2734.73541,0.06502
2732.80682,0.06461
2730.87823,0.06416
2728.94965,0.06387
2727.02106,0.06346
2725.09248,0.06304
2723.16389,0.06267
2721.23530,0.06224
2719.30672,0.06178
2717.37813,0.06138
2715.44954,0.06105
2713.52096,0.06057
2711.59237,0.06006
2709.66379,0.05963
2707.73520,0.05922
2705.80661,0.05887
2703.87803,0.05857
2701.94944,0.05821
2700.02085,0.05778
2698.09227,0.05744
2696.16368,0.05715
2694.23509,0.05688
2692.30651,0.05660
2690.37792,0.05627
2688.44934,0.05597
2686.52075,0.05561
2684.59216,0.05533
2682.66358,0.05507
2680.73499,0.05468
2678.80640,0.05432
2676.87782,0.05405
2674.94923,0.05374
2673.02064,0.05333
2671.09206,0.05290
2669.16347,0.05253
2667.23489,0.05228
2665.30630,0.05205
2663.37771,0.05166
2661.44913,0.05120
2659.52054,0.05084
2657.59195,0.05054
2655.66337,0.05021
2653.73478,0.04993
2651.80620,0.04966
2649.87761,0.04934
2647.94902,0.04905
2646.02044,0.04865
2644.09185,0.04831
2642.16326,0.04804
2640.23468,0.04775
2638.30609,0.04748
2636.37750,0.04714
2634.44892,0.04681
2632.52033,0.04654
2630.59175,0.04628
2628.66316,0.04598
2626.73457,0.04563
2624.80599,0.04529
2622.87740,0.04493
2620.94881,0.04456
2619.02023,0.04425
2617.09164,0.04401
2615.16306,0.04378
2613.23447,0.04353
2611.30588,0.04319
2609.37730,0.04275
2607.44871,0.04242
2605.52012,0.04212
2603.59154,0.04174
2601.66295,0.04147
2599.73436,0.04128
2597.80578,0.04093
2595.87719,0.04053
2593.94861,0.04026
2592.02002,0.04006
2590.09143,0.03978
2588.16285,0.03936
2586.23426,0.03904
2584.30567,0.03882
2582.37709,0.03846
2580.44850,0.03815
2578.51991,0.03791
2576.59133,0.03767
2574.66274,0.03748
2572.73416,0.03724
2570.80557,0.03697
2568.87698,0.03668
2566.94840,0.03635
2565.01981,0.03601
2563.09122,0.03571
2561.16264,0.03544
2559.23405,0.03520
2557.30547,0.03504
2555.37688,0.03491
2553.44829,0.03472
2551.51971,0.03453
2549.59112,0.03430
2547.66253,0.03404
2545.73395,0.03383
2543.80536,0.03362
2541.87677,0.03342
2539.94819,0.03314
2538.01960,0.03284
2536.09102,0.03267
2534.16243,0.03246
2532.23384,0.03224
2530.30526,0.03204
2528.37667,0.03182
2526.44808,0.03161
2524.51950,0.03129
2522.59091,0.03100
2520.66233,0.03081
2518.73374,0.03064
2516.80515,0.03047
2514.87657,0.03017
2512.94798,0.02989
2511.01939,0.02964
2509.09081,0.02934
2507.16222,0.02913
2505.23363,0.02888
2503.30505,0.02865
2501.37646,0.02845
2499.44788,0.02810
2497.51929,0.02779
2495.59070,0.02757
2493.66212,0.02729
2491.73353,0.02699
2489.80494,0.02668
2487.87636,0.02632
2485.94777,0.02604
2484.01919,0.02587
2482.09060,0.02563
2480.16201,0.02530
2478.23343,0.02499
2476.30484,0.02471
2474.37625,0.02443
2472.44767,0.02424
2470.51908,0.02393
2468.59049,0.02355
2466.66191,0.02324
2464.73332,0.02298
2462.80474,0.02275
2460.87615,0.02245
2458.94756,0.02211
2457.01898,0.02183
2455.09039,0.02156
2453.16180,0.02132
2451.23322,0.02105
2449.30463,0.02073
2447.37604,0.02035
2445.44746,0.02000
2443.51887,0.01974
2441.59029,0.01954
2439.66170,0.01933
2437.73311,0.01898
2435.80453,0.01864
2433.87594,0.01836
2431.94735,0.01808
2430.01877,0.01785
2428.09018,0.01760
2426.16160,0.01734
2424.23301,0.01708
2422.30442,0.01681
2420.37584,0.01658
2418.44725,0.01636
2416.51866,0.01603
2414.59008,0.01572
2412.66149,0.01543
2410.73290,0.01521
2408.80432,0.01508
2406.87573,0.01478
2404.94715,0.01448
2403.01856,0.01425
2401.08997,0.01400
2399.16139,0.01381
2397.23280,0.01358
2395.30421,0.01331
2393.37563,0.01304
2391.44704,0.01281
2389.51846,0.01267
2387.58987,0.01247
2385.66128,0.01222
2383.73270,0.01200
2381.80411,0.01180
2379.87552,0.01157
2377.94694,0.01138
2376.01835,0.01123
2374.08976,0.01110
2372.16118,0.01091
2370.23259,0.01057
2368.30401,0.01032
2366.37542,0.01006
2364.44683,0.00967
2362.51825,0.00938
2360.58966,0.00910
2358.66107,0.00888
2356.73249,0.00868
2354.80390,0.00842
2352.87532,0.00827
2350.94673,0.00834
2349.01814,0.00870
2347.08956,0.00897
2345.16097,0.00878
2343.23238,0.00846
2341.30380,0.00826
2339.37521,0.00816
2337.44662,0.00803
2335.51804,0.00779
2333.58945,0.00751
2331.66087,0.00725
2329.73228,0.00706
2327.80369,0.00697
2325.87511,0.00690
2323.94652,0.00676
2322.01793,0.00661
2320.08935,0.00659
2318.16076,0.00650
2316.23217,0.00635
2314.30359,0.00620
2312.37500,0.00608
2310.44642,0.00606
2308.51783,0.00600
2306.58924,0.00588
2304.66066,0.00580
2302.73207,0.00573
2300.80348,0.00563
2298.87490,0.00550
2296.94631,0.00536
2295.01773,0.00522
2293.08914,0.00515
2291.16055,0.00512
2289.23197,0.00501
2287.30338,0.00477
2285.37479,0.00457
2283.44621,0.00456
2281.51762,0.00449
2279.58903,0.00429
2277.66045,0.00415
2275.73186,0.00415
2273.80328,0.00417
2271.87469,0.00399
2269.94610,0.00380
2268.01752,0.00371
2266.08893,0.00365
2264.16034,0.00360
2262.23176,0.00348
2260.30317,0.00330
2258.37459,0.00316
2256.44600,0.00312
2254.51741,0.00312
2252.58883,0.00305
2250.66024,0.00291
2248.73165,0.00281
2246.80307,0.00281
2244.87448,0.00273
2242.94589,0.00254
2241.01731,0.00237
2239.08872,0.00225
2237.16014,0.00218
2235.23155,0.00216
2233.30296,0.00208
2231.37438,0.00192
2229.44579,0.00179
2227.51720,0.00180
2225.58862,0.00183
2223.66003,0.00167
2221.73145,0.00151
2219.80286,0.00145
2217.87427,0.00130
2215.94569,0.00122
2214.01710,0.00118
2212.08851,0.00104
2210.15993,0.00089
2208.23134,0.00084
2206.30275,0.00088
2204.37417,0.00091
2202.44558,0.00090
2200.51700,0.00083
2198.58841,0.00074
2196.65982,0.00069
2194.73124,0.00062
2192.80265,0.00056
2190.87406,0.00052
2188.94548,0.00053
2187.01689,0.00055
2185.08830,0.00047
2183.15972,0.00045
2181.23113,0.00048
2179.30255,0.00048
2177.37396,0.00048
2175.44537,0.00045
2173.51679,0.00043
2171.58820,0.00025
2169.65961,0.00000
2167.73103,0.00010
2165.80244,0.00036
2163.87386,0.00040
2161.94527,0.00038
2160.01668,0.00038
2158.08810,0.00039
2156.15951,0.00043
2154.23092,0.00047
2152.30234,0.00048
2150.37375,0.00045
2148.44516,0.00042
2146.51658,0.00031
2144.58799,0.00026
2142.65941,0.00028
2140.73082,0.00028
2138.80223,0.00032
2136.87365,0.00037
2134.94506,0.00038
2133.01647,0.00033
2131.08789,0.00023
2129.15930,0.00019
2127.23072,0.00018
2125.30213,0.00011
2123.37354,0.00011
2121.44496,0.00014
2119.51637,0.00014
2117.58778,0.00011
2115.65920,0.00007
2113.73061,0.00010
2111.80202,0.00014
2109.87344,0.00011
2107.94485,0.00010
2106.01627,0.00010
2104.08768,0.00011
2102.15909,0.00008
2100.23051,-0.00000
2098.30192,-0.00003
2096.37333,0.00004
2094.44475,0.00008
2092.51616,0.00002
2090.58758,0.00004
2088.65899,0.00009
2086.73040,0.00009
2084.80182,0.00015
2082.87323,0.00012
2080.94464,0.00008
2079.01606,0.00012
2077.08747,0.00008
2075.15888,0.00000
2073.23030,-0.00004
2071.30171,-0.00002
2069.37313,0.00002
2067.44454,0.00002
2065.51595,-0.00003
2063.58737,-0.00002
2061.65878,0.00004
2059.73019,0.00010
2057.80161,0.00018
2055.87302,0.00017
2053.94443,0.00014
2052.01585,0.00017
2050.08726,0.00023
2048.15868,0.00035
2046.23009,0.00044
2044.30150,0.00058
2042.37292,0.00082
2040.44433,0.00105
2038.51574,0.00125
2036.58716,0.00142
2034.65857,0.00162
2032.72999,0.00179
2030.80140,0.00191
2028.87281,0.00192
2026.94423,0.00185
2025.01564,0.00193
2023.08705,0.00199
2021.15847,0.00204
2019.22988,0.00216
2017.30129,0.00220
2015.37271,0.00221
2013.44412,0.00232
2011.51554,0.00257
2009.58695,0.00281
2007.65836,0.00297
2005.72978,0.00309
2003.80119,0.00319
2001.87260,0.00326
1999.94402,0.00325
1998.01543,0.00325
1996.08685,0.00325
1994.15826,0.00323
1992.22967,0.00312
1990.30109,0.00295
1988.37250,0.00288
1986.44391,0.00278
1984.51533,0.00269
1982.58674,0.00265
1980.65815,0.00261
1978.72957,0.00254
1976.80098,0.00244
1974.87240,0.00239
1972.94381,0.00227
1971.01522,0.00210
1969.08664,0.00198
1967.15805,0.00175
1965.22946,0.00151
1963.30088,0.00137
1961.37229,0.00115
1959.44371,0.00096
1957.51512,0.00090
1955.58653,0.00090
1953.65795,0.00091
1951.72936,0.00086
1949.80077,0.00078
1947.87219,0.00069
1945.94360,0.00051
1944.01501,0.00037
1942.08643,0.00028
1940.15784,0.00021
1938.22926,0.00012
1936.30067,0.00000
1934.37208,0.00004
1932.44350,-0.00003
1930.51491,-0.00009
1928.58632,-0.00004
1926.65774,-0.00009
1924.72915,0.00000
1922.80056,0.00007
1920.87198,0.00024
1918.94339,0.00044
1917.01481,0.00045
1915.08622,0.00065
1913.15763,0.00107
1911.22905,0.00154
1909.30046,0.00197
1907.37187,0.00229
1905.44329,0.00280
1903.51470,0.00338
1901.58612,0.00399
1899.65753,0.00451
1897.72894,0.00495
1895.80036,0.00549
1893.87177,0.00591
1891.94318,0.00640
1890.01460,0.00686
1888.08601,0.00708
1886.15742,0.00734
1884.22884,0.00754
1882.30025,0.00781
1880.37167,0.00803
1878.44308,0.00804
1876.51449,0.00811
1874.58591,0.00822
1872.65732,0.00839
1870.72873,0.00845
1868.80015,0.00815
1866.87156,0.00763
1864.94298,0.00728
1863.01439,0.00698
1861.08580,0.00636
1859.15722,0.00560
1857.22863,0.00486
1855.30004,0.00427
1853.37146,0.00359
1851.44287,0.00285
1849.51428,0.00212
1847.58570,0.00159
1845.65711,0.00137
1843.72853,0.00059
1841.79994,0.00000
1839.87135,-0.00011
1837.94277,-0.00039
1836.01418,-0.00055
1834.08559,-0.00064
1832.15701,-0.00051
1830.22842,-0.00046
1828.29984,-0.00048
1826.37125,-0.00012
1824.44266,0.00002
1822.51408,0.00025
1820.58549,0.00072
1818.65690,0.00122
1816.72832,0.00182
1814.79973,0.00240
1812.87114,0.00319
1810.94256,0.00408
1809.01397,0.00493
1807.08539,0.00585
1805.15680,0.00709
1803.22821,0.00857
1801.29963,0.00990
1799.37104,0.01122
1797.44245,0.01278
1795.51387,0.01469
1793.58528,0.01669
1791.65669,0.01820
1789.72811,0.01982
1787.79952,0.02207
1785.87094,0.02420
1783.94235,0.02622
1782.01376,0.02839
1780.08518,0.03049
1778.15659,0.03258
1776.22800,0.03474
1774.29942,0.03707
1772.37083,0.03875
1770.44225,0.04019
1768.51366,0.04238
1766.58507,0.04435
1764.65649,0.04648
1762.72790,0.04863
1760.79931,0.05045
1758.87073,0.05303
1756.94214,0.05572
1755.01355,0.05853
1753.08497,0.06186
1751.15638,0.06515
1749.22780,0.06850
1747.29921,0.07244
1745.37062,0.07678
1743.44204,0.08127
1741.51345,0.08598
1739.58486,0.09033
1737.65628,0.09452
1735.72769,0.09891
1733.79911,0.10179
1731.87052,0.10405
1729.94193,0.10732
1728.01335,0.11035
1726.08476,0.11339
1724.15617,0.11638
1722.22759,0.11920
1720.29900,0.12265
1718.37041,0.12567
1716.44183,0.12783
1714.51324,0.13014
1712.58466,0.13275
1710.65607,0.13512
1708.72748,0.13726
1706.79890,0.13959
1704.87031,0.14176
1702.94172,0.14460
1701.01314,0.14723
1699.08455,0.14899
1697.15596,0.15221
1695.22738,0.15480
1693.29879,0.15706
1691.37021,0.16071
1689.44162,0.16361
1687.51303,0.16701
1685.58445,0.17055
1683.65586,0.17251
1681.72727,0.17546
1679.79869,0.17903
1677.87010,0.18255
1675.94152,0.18566
1674.01293,0.18801
1672.08434,0.19098
1670.15576,0.19367
1668.22717,0.19556
1666.29858,0.19775
1664.37000,0.20004
1662.44141,0.20135
1660.51282,0.20234
1658.58424,0.20337
1656.65565,0.20426
1654.72707,0.20530
1652.79848,0.20365
1650.86989,0.20182
1648.94131,0.20246
1647.01272,0.20194
1645.08413,0.20053
1643.15555,0.19992
1641.22696,0.19958
1639.29838,0.19947
1637.36979,0.19971
1635.44120,0.19889
1633.51262,0.19764
1631.58403,0.19752
1629.65544,0.19679
1627.72686,0.19525
1625.79827,0.19349
1623.86968,0.19140
1621.94110,0.18877
1620.01251,0.18677
1618.08393,0.18538
1616.15534,0.18241
1614.22675,0.17995
1612.29817,0.17827
1610.36958,0.17622
1608.44099,0.17450
1606.51241,0.17291
1604.58382,0.17153
1602.65524,0.17000
1600.72665,0.16828
1598.79806,0.16654
1596.86948,0.16489
1594.94089,0.16314
1593.01230,0.16131
1591.08372,0.15962
1589.15513,0.15765
1587.22654,0.15573
1585.29796,0.15362
1583.36937,0.15159
1581.44079,0.14970
1579.51220,0.14822
1577.58361,0.14717
1575.65503,0.14485
1573.72644,0.14323
1571.79785,0.14306
1569.86927,0.14219
1567.94068,0.14122
1566.01209,0.14111
1564.08351,0.14107
1562.15492,0.14177
1560.22634,0.14260
1558.29775,0.14144
1556.36916,0.14127
1554.44058,0.14208
1552.51199,0.14206
1550.58340,0.14234
1548.65482,0.14239
1546.72623,0.14250
1544.79765,0.14241
1542.86906,0.14208
1540.94047,0.14174
1539.01189,0.13985
1537.08330,0.13897
1535.15471,0.13904
1533.22613,0.13779
1531.29754,0.13623
1529.36895,0.13535
1527.44037,0.13430
1525.51178,0.13284
1523.58320,0.13218
1521.65461,0.13129
1519.72602,0.13028
1517.79744,0.13000
1515.86885,0.12870
1513.94026,0.12661
1512.01168,0.12399
1510.08309,0.12121
1508.15451,0.11878
1506.22592,0.11452
1504.29733,0.11008
1502.36875,0.10719
1500.44016,0.10406
1498.51157,0.10066
1496.58299,0.09674
1494.65440,0.09293
1492.72581,0.09066
1490.79723,0.08849
1488.86864,0.08602
1486.94006,0.08431
1485.01147,0.08336
1483.08288,0.08324
1481.15430,0.08355
1479.22571,0.08445
1477.29712,0.08655
1475.36854,0.08983
1473.43995,0.09435
1471.51137,0.09981
1469.58278,0.10587
1467.65419,0.11125
1465.72561,0.11428
1463.79702,0.11563
1461.86843,0.11645
1459.93985,0.11751
1458.01126,0.11856
1456.08267,0.11834
1454.15409,0.11815
1452.22550,0.11827
1450.29692,0.11807
1448.36833,0.11777
1446.43974,0.11732
1444.51116,0.11713
1442.58257,0.11689
1440.65398,0.11670
1438.72540,0.11705
1436.79681,0.11678
1434.86822,0.11616
1432.93964,0.11616
1431.01105,0.11628
1429.08247,0.11617
1427.15388,0.11618
1425.22529,0.11639
1423.29671,0.11678
1421.36812,0.11753
1419.43953,0.11772
1417.51095,0.11739
1415.58236,0.11764
1413.65378,0.11769
1411.72519,0.11746
1409.79660,0.11728
1407.86802,0.11697
1405.93943,0.11668
1404.01084,0.11606
1402.08226,0.11537
1400.15367,0.11453
1398.22508,0.11348
1396.29650,0.11264
1394.36791,0.11147
1392.43933,0.11060
1390.51074,0.11050
1388.58215,0.11011
1386.65357,0.10910
1384.72498,0.10842
1382.79639,0.10904
1380.86781,0.11021
1378.93922,0.11069
1377.01064,0.11043
1375.08205,0.10963
1373.15346,0.10834
1371.22488,0.10692
1369.29629,0.10565
1367.36770,0.10423
1365.43912,0.10288
1363.51053,0.10162
1361.58194,0.10011
1359.65336,0.09880
1357.72477,0.09783
1355.79619,0.09684
1353.86760,0.09588
1351.93901,0.09514
1350.01043,0.09453
1348.08184,0.09372
1346.15325,0.09296
1344.22467,0.09251
1342.29608,0.09196
1340.36750,0.09138
1338.43891,0.09082
1336.51032,0.09022
1334.58174,0.08976
1332.65315,0.08939
1330.72456,0.08905
1328.79598,0.08863
1326.86739,0.08822
1324.93880,0.08793
1323.01022,0.08765
1321.08163,0.08742
1319.15305,0.08719
1317.22446,0.08695
1315.29587,0.08665
1313.36729,0.08630
1311.43870,0.08608
1309.51011,0.08575
1307.58153,0.08542
1305.65294,0.08539
1303.72435,0.08537
1301.79577,0.08528
1299.86718,0.08524
1297.93860,0.08527
1296.01001,0.08548
1294.08142,0.08595
1292.15284,0.08675
1290.22425,0.08775
1288.29566,0.08885
1286.36708,0.09017
1284.43849,0.09165
1282.50991,0.09319
1280.58132,0.09489
1278.65273,0.09681
1276.72415,0.09876
1274.79556,0.10073
1272.86697,0.10282
1270.93839,0.10506
1269.00980,0.10732
1267.08121,0.10969
1265.15263,0.11227
1263.22404,0.11508
1261.29546,0.11843
1259.36687,0.12223
1257.43828,0.12671
1255.50970,0.13200
1253.58111,0.13758
1251.65252,0.14342
1249.72394,0.14939
1247.79535,0.15535
1245.86677,0.16106
1243.93818,0.16636
1242.00959,0.17151
1240.08101,0.17643
1238.15242,0.18091
1236.22383,0.18480
1234.29525,0.18853
1232.36666,0.19226
1230.43807,0.19558
1228.50949,0.19851
1226.58090,0.20103
1224.65232,0.20353
1222.72373,0.20627
1220.79514,0.20903
1218.86656,0.21148
1216.93797,0.21375
1215.00938,0.21625
1213.08080,0.21853
1211.15221,0.22079
1209.22363,0.22318
1207.29504,0.22524
1205.36645,0.22720
1203.43787,0.22923
1201.50928,0.23131
1199.58069,0.23319
1197.65211,0.23504
1195.72352,0.23688
1193.79493,0.23855
1191.86635,0.24033
1189.93776,0.24211
1188.00918,0.24383
1186.08059,0.24533
1184.15200,0.24691
1182.22342,0.24908
1180.29483,0.25144
1178.36624,0.25404
1176.43766,0.25661
1174.50907,0.25909
1172.58048,0.26175
1170.65190,0.26446
1168.72331,0.26733
1166.79473,0.27031
1164.86614,0.27330
1162.93755,0.27604
1161.00897,0.27807
1159.08038,0.27942
1157.15179,0.28030
1155.22321,0.28116
1153.29462,0.28254
1151.36604,0.28445
1149.43745,0.28649
1147.50886,0.28855
1145.58028,0.29089
1143.65169,0.29366
1141.72310,0.29674
1139.79452,0.30013
1137.86593,0.30390
1135.93734,0.30790
1134.00876,0.31206
1132.08017,0.31618
1130.15159,0.32026
1128.22300,0.32513
1126.29441,0.33114
1124.36583,0.33709
1122.43724,0.34267
1120.50865,0.34864
1118.58007,0.35496
1116.65148,0.36161
1114.72290,0.36841
1112.79431,0.37518
1110.86572,0.38191
1108.93714,0.38835
1107.00855,0.39430
1105.07996,0.39907
1103.15138,0.40269
1101.22279,0.40571
1099.29420,0.40814
1097.36562,0.40964
1095.43703,0.41018
1093.50845,0.41018
1091.57986,0.40955
1089.65127,0.40867
1087.72269,0.40741
1085.79410,0.40516
1083.86551,0.40291
1081.93693,0.40097
1080.00834,0.39883
1078.07976,0.39717
1076.15117,0.39554
1074.22258,0.39295
1072.29400,0.39045
1070.36541,0.38875
1068.43682,0.38723
1066.50824,0.38546
1064.57965,0.38355
1062.65106,0.38163
1060.72248,0.37961
1058.79389,0.37730
1056.86531,0.37413
1054.93672,0.37089
1053.00813,0.36850
1051.07955,0.36623
1049.15096,0.36438
1047.22237,0.36363
1045.29379,0.36372
1043.36520,0.36456
1041.43661,0.36577
1039.50803,0.36685
1037.57944,0.36796
1035.65086,0.36885
1033.72227,0.36889
1031.79368,0.36774
1029.86510,0.36548
1027.93651,0.36252
1026.00792,0.35876
1024.07934,0.35465
1022.15075,0.35084
1020.22217,0.34696
1018.29358,0.34312
1016.36499,0.33951
1014.43641,0.33580
1012.50782,0.33190
1010.57923,0.32831
1008.65065,0.32464
1006.72206,0.32027
1004.79347,0.31558
1002.86489,0.31030
1000.93630,0.30488
999.00772,0.29942
997.07913,0.29333
995.15054,0.28726
993.22196,0.28127
991.29337,0.27503
989.36478,0.26847
987.43620,0.26133
985.50761,0.25375
983.57903,0.24597
981.65044,0.23768
979.72185,0.22861
977.79327,0.21889
975.86468,0.20886
973.93609,0.19914
972.00751,0.18945
970.07892,0.17998
968.15033,0.17140
966.22175,0.16307
964.29316,0.15540
962.36458,0.14850
960.43599,0.14219
958.50740,0.13683
956.57882,0.13181
954.65023,0.12731
952.72164,0.12356
950.79306,0.12034
948.86447,0.11746
946.93589,0.11501
945.00730,0.11315
943.07871,0.11136
941.15013,0.10987
939.22154,0.10869
937.29295,0.10736
935.36437,0.10573
933.43578,0.10411
931.50719,0.10291
929.57861,0.10180
927.65002,0.10073
925.72144,0.09959
923.79285,0.09883
921.86426,0.09857
919.93568,0.09813
918.00709,0.09795
916.07850,0.09755
914.14992,0.09671
912.22133,0.09544
910.29274,0.09255
908.36416,0.08825
906.43557,0.08338
904.50699,0.07816
902.57840,0.07256
900.64981,0.06704
898.72123,0.06194
896.79264,0.05694
894.86405,0.05215
892.93547,0.04788
891.00688,0.04422
889.07830,0.04108
887.14971,0.03827
885.22112,0.03532
883.29254,0.03232
881.36395,0.02936
879.43536,0.02640
877.50678,0.02399
875.57819,0.02153
873.64960,0.01869
871.72102,0.01609
869.79243,0.01349
867.86385,0.01071
865.93526,0.00815
864.00667,0.00612
862.07809,0.00445
860.14950,0.00318
858.22091,0.00232
856.29233,0.00151
854.36374,0.00050
852.43516,0.00000
850.50657,0.00094
848.57798,0.00243
846.64940,0.00378
844.72081,0.00556
842.79222,0.00794
840.86364,0.01082
838.93505,0.01410
837.00646,0.01729
835.07788,0.02065
833.14929,0.02465
831.22071,0.02777
829.29212,0.02939
827.36353,0.03054
825.43495,0.03170
823.50636,0.03250
821.57777,0.03305
819.64919,0.03428
817.72060,0.03577
815.79201,0.03738
813.86343,0.03940
811.93484,0.04267
810.00626,0.04775
808.07767,0.05341
806.14908,0.05984
804.22050,0.06635
802.29191,0.07112
800.36332,0.07356
798.43474,0.07317
796.50615,0.06964
794.57757,0.06354
792.64898,0.05817
790.72039,0.05480
788.79181,0.05225
786.86322,0.05075
784.93463,0.05038
783.00605,0.05110
781.07746,0.05173
779.14887,0.05045
777.22029,0.04643
775.29170,0.04068
773.36312,0.03524
771.43453,0.03034
769.50594,0.02645
767.57736,0.02443
765.64877,0.02367
763.72018,0.02355
761.79160,0.02392
759.86301,0.02384
757.93443,0.02358
756.00584,0.02384
754.07725,0.02345
752.14867,0.02281
750.22008,0.02186
748.29149,0.02028
746.36291,0.01912
744.43432,0.01768
742.50573,0.01559
740.57715,0.01258
738.64856,0.00985
736.71998,0.00857
734.79139,0.00736
732.86280,0.00652
730.93422,0.00603
729.00563,0.00596
727.07704,0.00660
725.14846,0.00676
723.21987,0.00661
721.29129,0.00650
719.36270,0.00560
717.43411,0.00354
715.50553,0.00205
713.57694,0.00185
711.64835,0.00227
709.71977,0.00344
707.79118,0.00430
705.86259,0.00562
703.93401,0.00851
702.00542,0.01159
700.07684,0.01501
698.14825,0.01944
696.21966,0.02264
694.29108,0.02182
692.36249,0.01846
690.43390,0.01512
688.50532,0.01235
686.57673,0.01044
684.64814,0.00954
682.71956,0.00894
680.79097,0.00790
678.86239,0.00705
676.93380,0.00604
675.00521,0.00538
673.07663,0.00508
671.14804,0.00340
669.21945,0.00153
667.29087,0.00091
665.36228,0.00200
663.43370,0.00241
661.50511,0.00202
659.57652,0.00325
657.64794,0.00387
655.71935,0.00411
653.79076,0.00443
651.86218,0.00417
649.93359,0.00547
648.00500,0.00719
646.07642,0.00733
644.14783,0.00623
642.21925,0.00604
640.29066,0.00790
638.36207,0.01012
636.43349,0.01046
634.50490,0.00962
632.57631,0.00993
630.64773,0.01049
628.71914,0.01122
626.79056,0.01232
624.86197,0.01413
622.93338,0.01601
621.00480,0.01579
619.07621,0.01567
617.14762,0.01631
615.21904,0.01767
613.29045,0.01994
611.36186,0.02138
609.43328,0.02216
607.50469,0.02294
605.57611,0.02404
603.64752,0.02516
601.71893,0.02704
599.79035,0.02905
597.86176,0.03070
595.93317,0.03270
594.00459,0.03452
592.07600,0.03820
590.14742,0.04188
588.21883,0.04432
586.29024,0.04862
584.36166,0.05388
582.43307,0.05837
580.50448,0.06119
578.57590,0.06338
576.64731,0.06615
574.71872,0.07075
572.79014,0.07613
570.86155,0.08002
568.93297,0.08484
567.00438,0.09005
565.07579,0.09451
563.14721,0.09982
561.21862,0.10607
559.29003,0.11201
557.36145,0.11695
555.43286,0.12177
553.50427,0.12521
551.57569,0.12682
549.64710,0.12947
547.71852,0.13526
545.78993,0.14109
543.86134,0.14565
541.93276,0.15016
540.00417,0.15368
538.07558,0.15866
536.14700,0.16325
534.21841,0.16622
532.28983,0.16996
530.36124,0.17250
528.43265,0.17334
526.50407,0.17080
524.57548,0.16787
522.64689,0.16826
520.71831,0.16698
518.78972,0.16181
516.86113,0.15499
514.93255,0.15023
513.00396,0.14817
511.07538,0.14532
509.14679,0.14014
507.21820,0.13667
505.28962,0.13729
503.36103,0.13912
501.43244,0.14272
499.50386,0.14745
497.57527,0.15323
495.64669,0.16046
493.71810,0.16740
491.78951,0.17713
489.86093,0.18978
487.93234,0.20299
486.00375,0.21488
484.07517,0.22720
482.14658,0.24155
480.21799,0.25101
478.28941,0.25812
476.36082,0.26719
474.43224,0.27123
472.50365,0.26826
470.57506,0.26517
468.64648,0.26215
466.71789,0.25477
464.78930,0.24397
462.86072,0.23043
460.93213,0.21827
459.00355,0.20276
457.07496,0.18555
455.14637,0.17541
453.21779,0.16315
451.28920,0.14734
449.36061,0.13780
447.43203,0.13612
445.50344,0.13034
443.57485,0.11941
441.64627,0.10989
439.71768,0.10261
437.78910,0.09904
435.86051,0.09487
433.93192,0.09377
432.00334,0.08957
430.07475,0.08529
428.14616,0.08684
426.21758,0.07897
424.28899,0.07116
422.36040,0.07188
420.43182,0.07618
418.50323,0.07195
416.57465,0.05893
414.64606,0.04407
412.71747,0.02940
410.78889,0.02220
408.86030,0.00909
406.93171,0.00208
405.00313,0.00081
403.07454,0.00000
401.14596,0.00416
399.21737,0.00000
