3747.24323,0.00190
3745.31464,0.00584
3743.38605,0.00071
3741.45747,0.00000
3739.52888,0.00498
3737.60030,0.00720
3735.67171,0.00655
3733.74312,0.00566
3731.81454,0.00596
3729.88595,0.00654
3727.95736,0.00904
3726.02878,0.01051
3724.10019,0.01079
3722.17161,0.01283
3720.24302,0.01400
3718.31443,0.01684
3716.38585,0.01987
3714.45726,0.02380
3712.52867,0.02821
3710.60009,0.02891
3708.67150,0.03194
3706.74291,0.03625
3704.81433,0.04178
3702.88574,0.04685
3700.95716,0.04858
3699.02857,0.05085
3697.09998,0.05222
3695.17140,0.05351
3693.24281,0.05445
3691.31422,0.05583
3689.38564,0.05605
3687.45705,0.05404
3685.52846,0.05655
3683.59988,0.06099
3681.67129,0.06548
3679.74271,0.06948
3677.81412,0.07552
3675.88553,0.08032
3673.95695,0.08126
3672.02836,0.08875
3670.09977,0.09486
3668.17119,0.09760
3666.24260,0.10398
3664.31402,0.11038
3662.38543,0.11667
3660.45684,0.12200
3658.52826,0.12784
3656.59967,0.13226
3654.67108,0.13444
3652.74250,0.14071
3650.81391,0.14594
3648.88532,0.14645
3646.95674,0.14762
3645.02815,0.15212
3643.09957,0.15751
3641.17098,0.16112
3639.24239,0.16407
3637.31381,0.16747
3635.38522,0.17165
3633.45663,0.17504
3631.52805,0.17952
3629.59946,0.18314
3627.67088,0.18090
3625.74229,0.18236
3623.81370,0.18571
3621.88512,0.18717
3619.95653,0.18695
3618.02794,0.18258
3616.09936,0.18035
3614.17077,0.17957
3612.24218,0.17728
3610.31360,0.17585
3608.38501,0.17353
3606.45643,0.17075
3604.52784,0.16978
3602.59925,0.16924
3600.67067,0.16801
3598.74208,0.16694
3596.81349,0.16598
3594.88491,0.16462
3592.95632,0.16297
3591.02774,0.16281
3589.09915,0.16337
3587.17056,0.16153
3585.24198,0.16015
3583.31339,0.16085
3581.38480,0.16145
3579.45622,0.16176
3577.52763,0.16191
3575.59904,0.16216
3573.67046,0.16280
3571.74187,0.16394
3569.81329,0.16544
3567.88470,0.16577
3565.95611,0.16486
3564.02753,0.16554
3562.09894,0.16712
3560.17035,0.16791
3558.24177,0.16881
3556.31318,0.16994
3554.38459,0.17107
3552.45601,0.17169
3550.52742,0.17223
3548.59884,0.17377
3546.67025,0.17490
3544.74166,0.17535
3542.81308,0.17626
3540.88449,0.17754
3538.95590,0.17869
3537.02732,0.17933
3535.09873,0.18010
3533.17015,0.18132
3531.24156,0.18263
3529.31297,0.18371
3527.38439,0.18434
3525.45580,0.18498
3523.52721,0.18581
3521.59863,0.18664
3519.67004,0.18782
3517.74145,0.18913
3515.81287,0.18996
3513.88428,0.19077
3511.95570,0.19182
3510.02711,0.19287
3508.09852,0.19381
3506.16994,0.19482
3504.24135,0.19580
3502.31276,0.19624
3500.38418,0.19709
3498.45559,0.19863
3496.52701,0.19988
3494.59842,0.20059
3492.66983,0.20108
3490.74125,0.20186
3488.81266,0.20283
3486.88407,0.20387
3484.95549,0.20485
3483.02690,0.20561
3481.09831,0.20635
3479.16973,0.20733
3477.24114,0.20849
3475.31256,0.20916
3473.38397,0.20960
3471.45538,0.21032
3469.52680,0.21124
3467.59821,0.21217
3465.66962,0.21276
3463.74104,0.21344
3461.81245,0.21415
3459.88386,0.21470
3457.95528,0.21547
3456.02669,0.21633
3454.09811,0.21705
3452.16952,0.21766
3450.24093,0.21855
3448.31235,0.21936
3446.38376,0.21964
3444.45517,0.22011
3442.52659,0.22089
3440.59800,0.22148
3438.66942,0.22204
3436.74083,0.22260
3434.81224,0.22308
3432.88366,0.22365
3430.95507,0.22396
3429.02648,0.22418
3427.09790,0.22463
3425.16931,0.22529
3423.24072,0.22611
3421.31214,0.22660
3419.38355,0.22679
3417.45497,0.22717
3415.52638,0.22760
3413.59779,0.22786
3411.66921,0.22838
3409.74062,0.22904
3407.81203,0.22928
3405.88345,0.22930
3403.95486,0.22931
3402.02628,0.22940
3400.09769,0.22955
3398.16910,0.22988
3396.24052,0.23026
3394.31193,0.23057
3392.38334,0.23090
3390.45476,0.23095
3388.52617,0.23113
3386.59758,0.23153
3384.66900,0.23168
3382.74041,0.23171
3380.81183,0.23178
3378.88324,0.23203
3376.95465,0.23226
3375.02607,0.23225
3373.09748,0.23218
3371.16889,0.23232
3369.24031,0.23257
3367.31172,0.23272
3365.38314,0.23293
3363.45455,0.23324
3361.52596,0.23340
3359.59738,0.23330
3357.66879,0.23344
3355.74020,0.23370
3353.81162,0.23365
3351.88303,0.23349
3349.95444,0.23335
3348.02586,0.23340
3346.09727,0.23351
3344.16869,0.23377
3342.24010,0.23387
3340.31151,0.23378
3338.38293,0.23389
3336.45434,0.23375
3334.52575,0.23377
3332.59717,0.23398
3330.66858,0.23397
3328.73999,0.23405
3326.81141,0.23417
3324.88282,0.23428
3322.95424,0.23401
3321.02565,0.23352
3319.09706,0.23340
3317.16848,0.23353
3315.23989,0.23363
3313.31130,0.23357
3311.38272,0.23345
3309.45413,0.23321
3307.52555,0.23314
3305.59696,0.23315
3303.66837,0.23292
3301.73979,0.23284
3299.81120,0.23269
3297.88261,0.23236
3295.95403,0.23224
3294.02544,0.23196
3292.09685,0.23119
3290.16827,0.23083
3288.23968,0.23094
3286.31110,0.23052
3284.38251,0.22996
3282.45392,0.22939
3280.52534,0.22885
3278.59675,0.22853
3276.66816,0.22788
3274.73958,0.22695
3272.81099,0.22590
3270.88241,0.22512
3268.95382,0.22465
3267.02523,0.22372
3265.09665,0.22262
3263.16806,0.22156
3261.23947,0.22056
3259.31089,0.21984
3257.38230,0.21888
3255.45371,0.21768
3253.52513,0.21658
3251.59654,0.21561
3249.66796,0.21467
3247.73937,0.21380
3245.81078,0.21297
3243.88220,0.21198
3241.95361,0.21115
3240.02502,0.21025
3238.09644,0.20910
3236.16785,0.20817
3234.23927,0.20736
3232.31068,0.20672
3230.38209,0.20608
3228.45351,0.20506
3226.52492,0.20398
3224.59633,0.20311
3222.66775,0.20242
3220.73916,0.20169
3218.81057,0.20078
3216.88199,0.20003
3214.95340,0.19934
3213.02482,0.19862
3211.09623,0.19802
3209.16764,0.19718
3207.23906,0.19620
3205.31047,0.19543
3203.38188,0.19452
3201.45330,0.19351
3199.52471,0.19257
3197.59612,0.19147
3195.66754,0.19044
3193.73895,0.18988
3191.81037,0.18932
3189.88178,0.18839
3187.95319,0.18740
3186.02461,0.18663
3184.09602,0.18583
3182.16743,0.18483
3180.23885,0.18379
3178.31026,0.18268
3176.38168,0.18166
3174.45309,0.18091
3172.52450,0.18023
3170.59592,0.17943
3168.66733,0.17854
3166.73874,0.17770
3164.81016,0.17680
3162.88157,0.17585
3160.95298,0.17486
3159.02440,0.17382
3157.09581,0.17292
3155.16723,0.17220
3153.23864,0.17171
3151.31005,0.17119
3149.38147,0.17057
3147.45288,0.16967
3145.52429,0.16838
3143.59571,0.16750
3141.66712,0.16691
3139.73854,0.16636
3137.80995,0.16590
3135.88136,0.16544
3133.95278,0.16496
3132.02419,0.16414
3130.09560,0.16346
3128.16702,0.16308
3126.23843,0.16262
3124.30984,0.16199
3122.38126,0.16111
3120.45267,0.16054
3118.52409,0.16023
3116.59550,0.15989
3114.66691,0.15946
3112.73833,0.15896
3110.80974,0.15880
3108.88115,0.15863
3106.95257,0.15817
3105.02398,0.15763
3103.09540,0.15718
3101.16681,0.15673
3099.23822,0.15626
3097.30964,0.15597
3095.38105,0.15559
3093.45246,0.15529
3091.52388,0.15510
3089.59529,0.15465
3087.66670,0.15427
3085.73812,0.15394
3083.80953,0.15364
3081.88095,0.15338
3079.95236,0.15292
3078.02377,0.15245
3076.09519,0.15195
3074.16660,0.15151
3072.23801,0.15100
3070.30943,0.15041
3068.38084,0.15002
3066.45225,0.14947
3064.52367,0.14870
3062.59508,0.14813
3060.66650,0.14759
3058.73791,0.14685
3056.80932,0.14602
3054.88074,0.14523
3052.95215,0.14468
3051.02356,0.14411
3049.09498,0.14344
3047.16639,0.14278
3045.23781,0.14205
3043.30922,0.14135
3041.38063,0.14065
3039.45205,0.14014
3037.52346,0.13969
3035.59487,0.13913
3033.66629,0.13879
3031.73770,0.13838
3029.80911,0.13790
3027.88053,0.13752
3025.95194,0.13704
3024.02336,0.13663
3022.09477,0.13625
3020.16618,0.13587
3018.23760,0.13547
3016.30901,0.13540
3014.38042,0.13569
3012.45184,0.13565
3010.52325,0.13538
3008.59467,0.13548
3006.66608,0.13605
3004.73749,0.13656
3002.80891,0.13694
3000.88032,0.13744
2998.95173,0.13810
2997.02315,0.13901
2995.09456,0.13993
2993.16597,0.14090
2991.23739,0.14202
2989.30880,0.14334
2987.38022,0.14480
2985.45163,0.14634
2983.52304,0.14819
2981.59446,0.15021
2979.66587,0.15213
2977.73728,0.15403
2975.80870,0.15617
2973.88011,0.15834
2971.95153,0.16042
2970.02294,0.16265
2968.09435,0.16486
2966.16577,0.16715
2964.23718,0.16958
2962.30859,0.17196
2960.38001,0.17418
2958.45142,0.17624
2956.52283,0.17832
2954.59425,0.18040
2952.66566,0.18266
2950.73708,0.18503
2948.80849,0.18742
2946.87990,0.19013
2944.95132,0.19346
2943.02273,0.19747
2941.09414,0.20178
2939.16556,0.20658
2937.23697,0.21159
2935.30838,0.21646
2933.37980,0.22134
2931.45121,0.22583
2929.52263,0.22989
2927.59404,0.23347
2925.66545,0.23643
2923.73687,0.23842
2921.80828,0.23894
2919.87969,0.23790
2917.95111,0.23434
2916.02252,0.22752
2914.09394,0.21844
2912.16535,0.20927
2910.23676,0.20155
2908.30818,0.19546
2906.37959,0.19075
2904.45100,0.18691
2902.52242,0.18351
2900.59383,0.18026
2898.66524,0.17720
2896.73666,0.17452
2894.80807,0.17170
2892.87949,0.16884
2890.95090,0.16619
2889.02231,0.16370
2887.09373,0.16154
2885.16514,0.15946
2883.23655,0.15759
2881.30797,0.15616
2879.37938,0.15503
2877.45080,0.15450
2875.52221,0.15452
2873.59362,0.15463
2871.66504,0.15481
2869.73645,0.15509
2867.80786,0.15561
2865.87928,0.15672
2863.95069,0.15881
2862.02210,0.16219
2860.09352,0.16708
2858.16493,0.17317
2856.23635,0.17937
2854.30776,0.18425
2852.37917,0.18646
2850.45059,0.18467
2848.52200,0.17757
2846.59341,0.16631
2844.66483,0.15439
2842.73624,0.14385
2840.80766,0.13509
2838.87907,0.12814
2836.95048,0.12260
2835.02190,0.11813
2833.09331,0.11442
2831.16472,0.11133
2829.23614,0.10872
2827.30755,0.10636
2825.37896,0.10422
2823.45038,0.10236
2821.52179,0.10067
2819.59321,0.09902
2817.66462,0.09743
2815.73603,0.09605
2813.80745,0.09489
2811.87886,0.09366
2809.95027,0.09243
2808.02169,0.09137
2806.09310,0.09036
2804.16451,0.08941
2802.23593,0.08838
2800.30734,0.08736
2798.37876,0.08657
2796.45017,0.08577
2794.52158,0.08490
2792.59300,0.08402
2790.66441,0.08320
2788.73582,0.08251
2786.80724,0.08181
2784.87865,0.08113
2782.95007,0.08038
2781.02148,0.07959
2779.09289,0.07899
2777.16431,0.07844
2775.23572,0.07792
2773.30713,0.07745
2771.37855,0.07692
2769.44996,0.07641
2767.52137,0.07589
2765.59279,0.07535
2763.66420,0.07485
2761.73562,0.07445
2759.80703,0.07411
2757.87844,0.07375
2755.94986,0.07331
2754.02127,0.07281
2752.09268,0.07237
2750.16410,0.07196
2748.23551,0.07149
2746.30693,0.07120
2744.37834,0.07103
2742.44975,0.07067
2740.52117,0.07021
2738.59258,0.06982
2736.66399,0.06940
2734.73541,0.06908
2732.80682,0.06883
2730.87823,0.06834
2728.94965,0.06785
2727.02106,0.06751
2725.09248,0.06716
2723.16389,0.06672
2721.23530,0.06629
2719.30672,0.06588
2717.37813,0.06528
2715.44954,0.06470
2713.52096,0.06428
2711.59237,0.06384
2709.66379,0.06346
2707.73520,0.06305
2705.80661,0.06259
2703.87803,0.06216
2701.94944,0.06172
2700.02085,0.06141
2698.09227,0.06110
2696.16368,0.06065
2694.23509,0.06032
2692.30651,0.06020
2690.37792,0.05994
2688.44934,0.05946
2686.52075,0.05909
2684.59216,0.05885
2682.66358,0.05848
2680.73499,0.05815
2678.80640,0.05787
2676.87782,0.05747
2674.94923,0.05705
2673.02064,0.05677
2671.09206,0.05655
2669.16347,0.05611
2667.23489,0.05560
2665.30630,0.05516
2663.37771,0.05475
2661.44913,0.05444
2659.52054,0.05409
2657.59195,0.05371
2655.66337,0.05331
2653.73478,0.05300
2651.80620,0.05275
2649.87761,0.05230
2647.94902,0.05195
2646.02044,0.05175
2644.09185,0.05143
2642.16326,0.05113
2640.23468,0.05082
2638.30609,0.05047
2636.37750,0.05001
2634.44892,0.04953
2632.52033,0.04920
2630.59175,0.04900
2628.66316,0.04871
2626.73457,0.04834
2624.80599,0.04805
2622.87740,0.04768
2620.94881,0.04739
2619.02023,0.04721
2617.09164,0.04686
2615.16306,0.04649
2613.23447,0.04612
2611.30588,0.04571
2609.37730,0.04535
2607.44871,0.04499
2605.52012,0.04459
2603.59154,0.04422
2601.66295,0.04389
2599.73436,0.04356
2597.80578,0.04328
2595.87719,0.04298
2593.94861,0.04267
2592.02002,0.04239
2590.09143,0.04206
2588.16285,0.04177
2586.23426,0.04148
2584.30567,0.04105
2582.37709,0.04061
2580.44850,0.04022
2578.51991,0.03991
2576.59133,0.03964
2574.66274,0.03937
2572.73416,0.03914
2570.80557,0.03894
2568.87698,0.03875
2566.94840,0.03849
2565.01981,0.03812
2563.09122,0.03781
2561.16264,0.03756
2559.23405,0.03723
2557.30547,0.03689
2555.37688,0.03664
2553.44829,0.03646
2551.51971,0.03627
2549.59112,0.03600
2547.66253,0.03571
2545.73395,0.03550
2543.80536,0.03524
2541.87677,0.03493
2539.94819,0.03472
2538.01960,0.03451
2536.09102,0.03419
2534.16243,0.03389
2532.23384,0.03365
2530.30526,0.03341
2528.37667,0.03316
2526.44808,0.03286
2524.51950,0.03265
2522.59091,0.03247
2520.66233,0.03208
2518.73374,0.03176
2516.80515,0.03160
2514.87657,0.03136
2512.94798,0.03116
2511.01939,0.03096
2509.09081,0.03055
2507.16222,0.03015
2505.23363,0.02992
2503.30505,0.02966
2501.37646,0.02938
2499.44788,0.02908
2497.51929,0.02872
2495.59070,0.02858
2493.66212,0.02848
2491.73353,0.02808
2489.80494,0.02762
2487.87636,0.02742
2485.94777,0.02722
2484.01919,0.02682
2482.09060,0.02647
2480.16201,0.02613
2478.23343,0.02586
2476.30484,0.02570
2474.37625,0.02555
2472.44767,0.02519
2470.51908,0.02460
2468.59049,0.02428
2466.66191,0.02414
2464.73332,0.02383
2462.80474,0.02359
2460.87615,0.02332
2458.94756,0.02293
2457.01898,0.02252
2455.09039,0.02217
2453.16180,0.02195
2451.23322,0.02171
2449.30463,0.02146
2447.37604,0.02119
2445.44746,0.02095
2443.51887,0.02086
2441.59029,0.02063
2439.66170,0.02027
2437.73311,0.01991
2435.80453,0.01946
2433.87594,0.01907
2431.94735,0.01887
2430.01877,0.01865
2428.09018,0.01835
2426.16160,0.01805
2424.23301,0.01779
2422.30442,0.01749
2420.37584,0.01718
2418.44725,0.01700
2416.51866,0.01687
2414.59008,0.01664
2412.66149,0.01627
2410.73290,0.01591
2408.80432,0.01570
2406.87573,0.01544
2404.94715,0.01516
2403.01856,0.01494
2401.08997,0.01465
2399.16139,0.01430
2397.23280,0.01402
2395.30421,0.01389
2393.37563,0.01375
2391.44704,0.01353
2389.51846,0.01333
2387.58987,0.01309
2385.66128,0.01280
2383.73270,0.01263
2381.80411,0.01255
2379.87552,0.01229
2377.94694,0.01210
2376.01835,0.01224
2374.08976,0.01238
2372.16118,0.01245
2370.23259,0.01251
2368.30401,0.01249
2366.37542,0.01244
2364.44683,0.01237
2362.51825,0.01228
2360.58966,0.01200
2358.66107,0.01157
2356.73249,0.01110
2354.80390,0.01058
2352.87532,0.01014
2350.94673,0.00976
2349.01814,0.00968
2347.08956,0.00988
2345.16097,0.00997
2343.23238,0.01008
2341.30380,0.01013
2339.37521,0.01003
2337.44662,0.00991
2335.51804,0.00965
2333.58945,0.00928
2331.66087,0.00895
2329.73228,0.00865
2327.80369,0.00842
2325.87511,0.00823
2323.94652,0.00795
2322.01793,0.00770
2320.08935,0.00751
2318.16076,0.00733
2316.23217,0.00713
2314.30359,0.00683
2312.37500,0.00663
2310.44642,0.00648
2308.51783,0.00623
2306.58924,0.00599
2304.66066,0.00577
2302.73207,0.00563
2300.80348,0.00555
2298.87490,0.00555
2296.94631,0.00545
2295.01773,0.00517
2293.08914,0.00499
2291.16055,0.00492
2289.23197,0.00493
2287.30338,0.00485
2285.37479,0.00475
2283.44621,0.00472
2281.51762,0.00454
2279.58903,0.00428
2277.66045,0.00418
2275.73186,0.00417
2273.80328,0.00398
2271.87469,0.00379
2269.94610,0.00382
2268.01752,0.00383
2266.08893,0.00368
2264.16034,0.00345
2262.23176,0.00329
2260.30317,0.00319
2258.37459,0.00315
2256.44600,0.00307
2254.51741,0.00296
2252.58883,0.00291
2250.66024,0.00282
2248.73165,0.00293
2246.80307,0.00298
2244.87448,0.00278
2242.94589,0.00270
2241.01731,0.00266
2239.08872,0.00263
2237.16014,0.00245
2235.23155,0.00219
2233.30296,0.00206
2231.37438,0.00194
2229.44579,0.00186
2227.51720,0.00178
2225.58862,0.00173
2223.66003,0.00166
2221.73145,0.00153
2219.80286,0.00146
2217.87427,0.00124
2215.94569,0.00106
2214.01710,0.00109
2212.08851,0.00107
2210.15993,0.00088
2208.23134,0.00074
2206.30275,0.00075
2204.37417,0.00071
2202.44558,0.00066
2200.51700,0.00065
2198.58841,0.00061
2196.65982,0.00050
2194.73124,0.00051
2192.80265,0.00062
2190.87406,0.00053
2188.94548,0.00037
2187.01689,0.00035
2185.08830,0.00036
2183.15972,0.00035
2181.23113,0.00033
2179.30255,0.00033
2177.37396,0.00028
2175.44537,0.00026
2173.51679,0.00031
2171.58820,0.00016
2169.65961,0.00000
2167.73103,0.00015
2165.80244,0.00032
2163.87386,0.00033
2161.94527,0.00037
2160.01668,0.00041
2158.08810,0.00030
2156.15951,0.00023
2154.23092,0.00023
2152.30234,0.00025
2150.37375,0.00040
2148.44516,0.00055
2146.51658,0.00053
2144.58799,0.00045
2142.65941,0.00039
2140.73082,0.00036
2138.80223,0.00040
2136.87365,0.00051
2134.94506,0.00057
2133.01647,0.00057
2131.08789,0.00045
2129.15930,0.00028
2127.23072,0.00019
2125.30213,0.00009
2123.37354,0.00000
2121.44496,0.00001
2119.51637,0.00012
2117.58778,0.00020
2115.65920,0.00012
2113.73061,0.00003
2111.80202,0.00006
2109.87344,0.00020
2107.94485,0.00025
2106.01627,0.00014
2104.08768,0.00009
2102.15909,0.00014
2100.23051,0.00016
2098.30192,0.00012
2096.37333,0.00009
2094.44475,0.00012
2092.51616,0.00005
2090.58758,-0.00003
2088.65899,-0.00000
2086.73040,0.00005
2084.80182,0.00005
2082.87323,-0.00003
2080.94464,0.00000
2079.01606,0.00003
2077.08747,0.00001
2075.15888,-0.00003
2073.23030,-0.00008
2071.30171,-0.00006
2069.37313,0.00003
2067.44454,0.00011
2065.51595,0.00004
2063.58737,-0.00011
2061.65878,-0.00011
2059.73019,-0.00003
2057.80161,0.00002
2055.87302,0.00003
2053.94443,0.00004
2052.01585,0.00013
2050.08726,0.00031
2048.15868,0.00048
2046.23009,0.00059
2044.30150,0.00089
2042.37292,0.00116
2040.44433,0.00134
2038.51574,0.00166
2036.58716,0.00205
2034.65857,0.00240
2032.72999,0.00266
2030.80140,0.00293
2028.87281,0.00310
2026.94423,0.00312
2025.01564,0.00322
2023.08705,0.00332
2021.15847,0.00338
2019.22988,0.00346
2017.30129,0.00362
2015.37271,0.00378
2013.44412,0.00401
2011.51554,0.00432
2009.58695,0.00457
2007.65836,0.00488
2005.72978,0.00525
2003.80119,0.00556
2001.87260,0.00560
1999.94402,0.00558
1998.01543,0.00564
1996.08685,0.00564
1994.15826,0.00566
1992.22967,0.00528
1990.30109,0.00490
1988.37250,0.00489
1986.44391,0.00474
1984.51533,0.00461
1982.58674,0.00458
1980.65815,0.00445
1978.72957,0.00421
1976.80098,0.00400
1974.87240,0.00389
1972.94381,0.00364
1971.01522,0.00342
1969.08664,0.00332
1967.15805,0.00296
1965.22946,0.00244
1963.30088,0.00220
1961.37229,0.00206
1959.44371,0.00176
1957.51512,0.00145
1955.58653,0.00125
1953.65795,0.00120
1951.72936,0.00109
1949.80077,0.00092
1947.87219,0.00082
1945.94360,0.00077
1944.01501,0.00073
1942.08643,0.00035
1940.15784,0.00008
1938.22926,0.00022
1936.30067,0.00023
1934.37208,0.00016
1932.44350,0.00003
1930.51491,-0.00005
1928.58632,-0.00008
1926.65774,-0.00006
1924.72915,0.00016
1922.80056,0.00000
1920.87198,0.00010
1918.94339,0.00053
1917.01481,0.00034
1915.08622,0.00076
1913.15763,0.00169
1911.22905,0.00234
1909.30046,0.00306
1907.37187,0.00366
1905.44329,0.00444
1903.51470,0.00535
1901.58612,0.00620
1899.65753,0.00710
1897.72894,0.00790
1895.80036,0.00858
1893.87177,0.00892
1891.94318,0.00975
1890.01460,0.01052
1888.08601,0.01057
1886.15742,0.01112
1884.22884,0.01155
1882.30025,0.01177
1880.37167,0.01216
1878.44308,0.01244
1876.51449,0.01275
1874.58591,0.01284
1872.65732,0.01320
1870.72873,0.01341
1868.80015,0.01263
1866.87156,0.01168
1864.94298,0.01142
1863.01439,0.01110
1861.08580,0.01026
1859.15722,0.00932
1857.22863,0.00811
1855.30004,0.00704
1853.37146,0.00587
1851.44287,0.00472
1849.51428,0.00373
1847.58570,0.00300
1845.65711,0.00278
1843.72853,0.00107
1841.79994,0.00000
1839.87135,0.00028
1837.94277,0.00005
1836.01418,-0.00018
1834.08559,-0.00044
1832.15701,-0.00004
1830.22842,-0.00026
1828.29984,-0.00081
1826.37125,-0.00015
1824.44266,-0.00029
1822.51408,-0.00018
1820.58549,0.00054
1818.65690,0.00100
1816.72832,0.00152
1814.79973,0.00207
1812.87114,0.00295
1810.94256,0.00359
1809.01397,0.00427
1807.08539,0.00531
1805.15680,0.00645
1803.22821,0.00775
1801.29963,0.00880
1799.37104,0.00973
1797.44245,0.01100
1795.51387,0.01306
1793.58528,0.01513
1791.65669,0.01566
1789.72811,0.01654
1787.79952,0.01912
1785.87094,0.02131
1783.94235,0.02279
1782.01376,0.02454
1780.08518,0.02619
1778.15659,0.02792
1776.22800,0.02996
1774.29942,0.03223
1772.37083,0.03295
1770.44225,0.03326
1768.51366,0.03526
1766.58507,0.03668
1764.65649,0.03911
1762.72790,0.04152
1760.79931,0.04244
1758.87073,0.04518
1756.94214,0.04777
1755.01355,0.05029
1753.08497,0.05411
1751.15638,0.05687
1749.22780,0.05923
1747.29921,0.06287
1745.37062,0.06711
1743.44204,0.07139
1741.51345,0.07585
1739.58486,0.07954
1737.65628,0.08351
1735.72769,0.08870
1733.79911,0.09051
1731.87052,0.09187
1729.94193,0.09595
1728.01335,0.09869
1726.08476,0.10192
1724.15617,0.10507
1722.22759,0.10816
1720.29900,0.11276
1718.37041,0.11583
1716.44183,0.11742
1714.51324,0.12000
1712.58466,0.12381
1710.65607,0.12744
1708.72748,0.13055
1706.79890,0.13369
1704.87031,0.13577
1702.94172,0.13980
1701.01314,0.14339
1699.08455,0.14406
1697.15596,0.14843
1695.22738,0.15130
1693.29879,0.15358
1691.37021,0.15853
1689.44162,0.16143
1687.51303,0.16527
1685.58445,0.16928
1683.65586,0.16906
1681.72727,0.17146
1679.79869,0.17548
1677.87010,0.17949
1675.94152,0.18231
1674.01293,0.18334
1672.08434,0.18626
1670.15576,0.18866
1668.22717,0.18934
1666.29858,0.19149
1664.37000,0.19412
1662.44141,0.19464
1660.51282,0.19512
1658.58424,0.19648
1656.65565,0.19787
1654.72707,0.19986
1652.79848,0.19589
1650.86989,0.19353
1648.94131,0.19690
1647.01272,0.19689
1645.08413,0.19499
1643.15555,0.19580
1641.22696,0.19691
1639.29838,0.19767
1637.36979,0.19872
1635.44120,0.19711
1633.51262,0.19528
1631.58403,0.19668
1629.65544,0.19678
1627.72686,0.19536
1625.79827,0.19372
1623.86968,0.19131
1621.94110,0.18788
1620.01251,0.18613
1618.08393,0.18523
1616.15534,0.18066
1614.22675,0.17787
1612.29817,0.17712
1610.36958,0.17546
1608.44099,0.17350
1606.51241,0.17145
1604.58382,0.16963
1602.65524,0.16714
1600.72665,0.16494
1598.79806,0.16289
1596.86948,0.16091
1594.94089,0.15889
1593.01230,0.15664
1591.08372,0.15489
1589.15513,0.15289
1587.22654,0.15112
1585.29796,0.14905
1583.36937,0.14710
1581.44079,0.14529
1579.51220,0.14415
1577.58361,0.14354
1575.65503,0.13970
1573.72644,0.13764
1571.79785,0.13873
1569.86927,0.13773
1567.94068,0.13603
1566.01209,0.13645
1564.08351,0.13682
1562.15492,0.13822
1560.22634,0.13941
1558.29775,0.13515
1556.36916,0.13519
1554.44058,0.13725
1552.51199,0.13747
1550.58340,0.13843
1548.65482,0.13849
1546.72623,0.13905
1544.79765,0.13923
1542.86906,0.13898
1540.94047,0.13889
1539.01189,0.13490
1537.08330,0.13470
1535.15471,0.13613
1533.22613,0.13471
1531.29754,0.13324
1529.36895,0.13318
1527.44037,0.13257
1525.51178,0.13063
1523.58320,0.13025
1521.65461,0.12895
1519.72602,0.12710
1517.79744,0.12740
1515.86885,0.12617
1513.94026,0.12453
1512.01168,0.12240
1510.08309,0.11982
1508.15451,0.11743
1506.22592,0.11049
1504.29733,0.10503
1502.36875,0.10363
1500.44016,0.10111
1498.51157,0.09744
1496.58299,0.09300
1494.65440,0.08902
1492.72581,0.08760
1490.79723,0.08561
1488.86864,0.08224
1486.94006,0.08029
1485.01147,0.07959
1483.08288,0.07978
1481.15430,0.08016
1479.22571,0.08124
1477.29712,0.08321
1475.36854,0.08568
1473.43995,0.08939
1471.51137,0.09386
1469.58278,0.09990
1467.65419,0.10606
1465.72561,0.10879
1463.79702,0.10919
1461.86843,0.11009
1459.93985,0.11213
1458.01126,0.11319
1456.08267,0.11136
1454.15409,0.11171
1452.22550,0.11297
1450.29692,0.11328
1448.36833,0.11301
1446.43974,0.11197
1444.51116,0.11193
1442.58257,0.11202
1440.65398,0.11183
1438.72540,0.11238
1436.79681,0.11116
1434.86822,0.10957
1432.93964,0.11014
1431.01105,0.11027
1429.08247,0.10948
1427.15388,0.10945
1425.22529,0.10963
1423.29671,0.10943
1421.36812,0.10991
1419.43953,0.10947
1417.51095,0.10809
1415.58236,0.10830
1413.65378,0.10830
1411.72519,0.10790
1409.79660,0.10738
1407.86802,0.10662
1405.93943,0.10588
1404.01084,0.10432
1402.08226,0.10350
1400.15367,0.10259
1398.22508,0.10102
1396.29650,0.10014
1394.36791,0.09864
1392.43933,0.09749
1390.51074,0.09749
1388.58215,0.09685
1386.65357,0.09460
1384.72498,0.09310
1382.79639,0.09420
1380.86781,0.09621
1378.93922,0.09745
1377.01064,0.09779
1375.08205,0.09728
1373.15346,0.09603
1371.22488,0.09513
1369.29629,0.09426
1367.36770,0.09263
1365.43912,0.09134
1363.51053,0.08977
1361.58194,0.08784
1359.65336,0.08658
1357.72477,0.08563
1355.79619,0.08466
1353.86760,0.08381
1351.93901,0.08323
1350.01043,0.08257
1348.08184,0.08203
1346.15325,0.08162
1344.22467,0.08108
1342.29608,0.08067
1340.36750,0.08006
1338.43891,0.07918
1336.51032,0.07834
1334.58174,0.07778
1332.65315,0.07741
1330.72456,0.07710
1328.79598,0.07684
1326.86739,0.07651
1324.93880,0.07620
1323.01022,0.07591
1321.08163,0.07572
1319.15305,0.07551
1317.22446,0.07516
1315.29587,0.07485
1313.36729,0.07445
1311.43870,0.07407
1309.51011,0.07389
1307.58153,0.07380
1305.65294,0.07358
1303.72435,0.07334
1301.79577,0.07336
1299.86718,0.07356
1297.93860,0.07388
1296.01001,0.07423
1294.08142,0.07468
1292.15284,0.07538
1290.22425,0.07629
1288.29566,0.07732
1286.36708,0.07865
1284.43849,0.08034
1282.50991,0.08189
1280.58132,0.08334
1278.65273,0.08486
1276.72415,0.08639
1274.79556,0.08811
1272.86697,0.09012
1270.93839,0.09242
1269.00980,0.09468
1267.08121,0.09728
1265.15263,0.10045
1263.22404,0.10378
1261.29546,0.10746
1259.36687,0.11190
1257.43828,0.11707
1255.50970,0.12254
1253.58111,0.12819
1251.65252,0.13410
1249.72394,0.14010
1247.79535,0.14619
1245.86677,0.15200
1243.93818,0.15712
1242.00959,0.16180
1240.08101,0.16630
1238.15242,0.17043
1236.22383,0.17417
1234.29525,0.17771
1232.36666,0.18091
1230.43807,0.18381
1228.50949,0.18643
1226.58090,0.18884
1224.65232,0.19131
1222.72373,0.19385
1220.79514,0.19649
1218.86656,0.19921
1216.93797,0.20177
1215.00938,0.20423
1213.08080,0.20699
1211.15221,0.20995
1209.22363,0.21288
1207.29504,0.21557
1205.36645,0.21789
1203.43787,0.22020
1201.50928,0.22254
1199.58069,0.22477
1197.65211,0.22687
1195.72352,0.22878
1193.79493,0.23060
1191.86635,0.23243
1189.93776,0.23452
1188.00918,0.23650
1186.08059,0.23816
1184.15200,0.24006
1182.22342,0.24202
1180.29483,0.24411
1178.36624,0.24672
1176.43766,0.24950
1174.50907,0.25235
1172.58048,0.25521
1170.65190,0.25792
1168.72331,0.26105
1166.79473,0.26450
1164.86614,0.26764
1162.93755,0.27053
1161.00897,0.27261
1159.08038,0.27353
1157.15179,0.27419
1155.22321,0.27509
1153.29462,0.27638
1151.36604,0.27795
1149.43745,0.27956
1147.50886,0.28159
1145.58028,0.28440
1143.65169,0.28762
1141.72310,0.29055
1139.79452,0.29368
1137.86593,0.29721
1135.93734,0.30065
1134.00876,0.30431
1132.08017,0.30815
1130.15159,0.31214
1128.22300,0.31695
1126.29441,0.32259
1124.36583,0.32824
1122.43724,0.33366
1120.50865,0.33902
1118.58007,0.34463
1116.65148,0.35117
1114.72290,0.35785
1112.79431,0.36416
1110.86572,0.37038
1108.93714,0.37616
1107.00855,0.38166
1105.07996,0.38683
1103.15138,0.39138
1101.22279,0.39534
1099.29420,0.39853
1097.36562,0.40040
1095.43703,0.40188
1093.50845,0.40376
1091.57986,0.40454
1089.65127,0.40400
1087.72269,0.40322
1085.79410,0.40288
1083.86551,0.40246
1081.93693,0.40201
1080.00834,0.40168
1078.07976,0.40007
1076.15117,0.39804
1074.22258,0.39657
1072.29400,0.39554
1070.36541,0.39483
1068.43682,0.39410
1066.50824,0.39375
1064.57965,0.39360
1062.65106,0.39352
1060.72248,0.39266
1058.79389,0.39043
1056.86531,0.38806
1054.93672,0.38573
1053.00813,0.38332
1051.07955,0.38161
1049.15096,0.38107
1047.22237,0.38105
1045.29379,0.38135
1043.36520,0.38247
1041.43661,0.38368
1039.50803,0.38481
1037.57944,0.38645
1035.65086,0.38781
1033.72227,0.38863
1031.79368,0.38870
1029.86510,0.38730
1027.93651,0.38561
1026.00792,0.38363
1024.07934,0.38057
1022.15075,0.37721
1020.22217,0.37379
1018.29358,0.37070
1016.36499,0.36795
1014.43641,0.36530
1012.50782,0.36305
1010.57923,0.36088
1008.65065,0.35791
1006.72206,0.35417
1004.79347,0.35052
1002.86489,0.34647
1000.93630,0.34197
999.00772,0.33740
997.07913,0.33252
995.15054,0.32742
993.22196,0.32169
991.29337,0.31599
989.36478,0.31057
987.43620,0.30435
985.50761,0.29760
983.57903,0.29043
981.65044,0.28231
979.72185,0.27311
977.79327,0.26325
975.86468,0.25329
973.93609,0.24327
972.00751,0.23282
970.07892,0.22224
968.15033,0.21220
966.22175,0.20254
964.29316,0.19368
962.36458,0.18578
960.43599,0.17810
958.50740,0.17095
956.57882,0.16468
954.65023,0.15950
952.72164,0.15559
950.79306,0.15224
948.86447,0.14908
946.93589,0.14627
945.00730,0.14370
943.07871,0.14165
941.15013,0.13998
939.22154,0.13839
937.29295,0.13691
935.36437,0.13505
933.43578,0.13315
931.50719,0.13176
929.57861,0.13067
927.65002,0.12965
925.72144,0.12825
923.79285,0.12693
921.86426,0.12628
919.93568,0.12600
918.00709,0.12600
916.07850,0.12580
914.14992,0.12479
912.22133,0.12251
910.29274,0.11901
908.36416,0.11449
906.43557,0.10868
904.50699,0.10204
902.57840,0.09516
900.64981,0.08815
898.72123,0.08109
896.79264,0.07416
894.86405,0.06767
892.93547,0.06213
891.00688,0.05762
889.07830,0.05343
887.14971,0.04963
885.22112,0.04602
883.29254,0.04214
881.36395,0.03834
879.43536,0.03472
877.50678,0.03152
875.57819,0.02818
873.64960,0.02433
871.72102,0.02034
869.79243,0.01660
867.86385,0.01359
865.93526,0.01071
864.00667,0.00799
862.07809,0.00593
860.14950,0.00406
858.22091,0.00254
856.29233,0.00155
854.36374,0.00089
852.43516,0.00050
850.50657,0.00054
848.57798,0.00114
846.64940,0.00255
844.72081,0.00499
842.79222,0.00768
840.86364,0.01083
838.93505,0.01500
837.00646,0.01909
835.07788,0.02272
833.14929,0.02642
831.22071,0.02972
829.29212,0.03197
827.36353,0.03356
825.43495,0.03480
823.50636,0.03552
821.57777,0.03635
819.64919,0.03750
817.72060,0.03871
815.79201,0.04067
813.86343,0.04350
811.93484,0.04749
810.00626,0.05354
808.07767,0.06185
806.14908,0.07176
804.22050,0.08110
802.29191,0.08811
800.36332,0.09198
798.43474,0.09142
796.50615,0.08662
794.57757,0.07981
792.64898,0.07344
790.72039,0.06807
788.79181,0.06393
786.86322,0.06221
784.93463,0.06324
783.00605,0.06597
781.07746,0.06761
779.14887,0.06623
777.22029,0.06126
775.29170,0.05358
773.36312,0.04605
771.43453,0.03998
769.50594,0.03545
767.57736,0.03263
765.64877,0.03140
763.72018,0.03139
761.79160,0.03170
759.86301,0.03192
757.93443,0.03195
756.00584,0.03205
754.07725,0.03214
752.14867,0.03192
750.22008,0.03106
748.29149,0.02924
746.36291,0.02693
744.43432,0.02411
742.50573,0.02129
740.57715,0.01856
738.64856,0.01549
736.71998,0.01283
734.79139,0.01037
732.86280,0.00859
730.93422,0.00773
729.00563,0.00722
727.07704,0.00785
725.14846,0.00848
723.21987,0.00776
721.29129,0.00691
719.36270,0.00620
717.43411,0.00488
715.50553,0.00325
713.57694,0.00221
711.64835,0.00236
709.71977,0.00311
707.79118,0.00452
705.86259,0.00690
703.93401,0.00955
702.00542,0.01341
700.07684,0.01857
698.14825,0.02455
696.21966,0.02983
694.29108,0.02989
692.36249,0.02516
690.43390,0.01959
688.50532,0.01578
686.57673,0.01365
684.64814,0.01110
682.71956,0.00919
680.79097,0.00844
678.86239,0.00767
676.93380,0.00674
675.00521,0.00563
673.07663,0.00455
671.14804,0.00403
669.21945,0.00398
667.29087,0.00283
665.36228,0.00106
663.43370,0.00000
661.50511,-0.00052
659.57652,-0.00045
657.64794,-0.00065
655.71935,-0.00008
653.79076,0.00109
651.86218,0.00193
649.93359,0.00237
648.00500,0.00227
646.07642,0.00242
644.14783,0.00228
642.21925,0.00220
640.29066,0.00272
638.36207,0.00304
636.43349,0.00293
634.50490,0.00300
632.57631,0.00355
630.64773,0.00355
628.71914,0.00377
626.79056,0.00458
624.86197,0.00541
622.93338,0.00583
621.00480,0.00562
619.07621,0.00605
617.14762,0.00667
615.21904,0.00772
613.29045,0.00930
611.36186,0.01064
609.43328,0.01177
607.50469,0.01212
605.57611,0.01352
603.64752,0.01634
601.71893,0.01868
599.79035,0.02038
597.86176,0.02272
595.93317,0.02625
594.00459,0.02910
592.07600,0.03117
590.14742,0.03432
588.21883,0.03830
586.29024,0.04213
584.36166,0.04686
582.43307,0.05110
580.50448,0.05365
578.57590,0.05808
576.64731,0.06382
574.71872,0.06854
572.79014,0.07351
570.86155,0.07963
568.93297,0.08509
567.00438,0.08990
565.07579,0.09603
563.14721,0.10148
561.21862,0.10728
559.29003,0.11360
557.36145,0.11771
555.43286,0.12140
553.50427,0.12574
551.57569,0.13114
549.64710,0.13667
547.71852,0.14156
545.78993,0.14656
543.86134,0.15154
541.93276,0.15761
540.00417,0.16449
538.07558,0.17059
536.14700,0.17455
534.21841,0.17783
532.28983,0.18235
530.36124,0.18578
528.43265,0.18772
526.50407,0.18822
524.57548,0.18593
522.64689,0.18246
520.71831,0.17848
518.78972,0.17220
516.86113,0.16481
514.93255,0.16035
513.00396,0.15673
511.07538,0.15051
509.14679,0.14463
507.21820,0.14031
505.28962,0.13750
503.36103,0.13761
501.43244,0.13973
499.50386,0.14369
497.57527,0.14963
495.64669,0.15570
493.71810,0.16324
491.78951,0.17510
489.86093,0.18922
487.93234,0.20256
486.00375,0.21270
484.07517,0.22124
482.14658,0.23455
480.21799,0.24668
478.28941,0.25374
476.36082,0.26191
474.43224,0.26810
472.50365,0.27023
470.57506,0.26650
468.64648,0.25973
466.71789,0.25444
464.78930,0.24491
462.86072,0.23329
460.93213,0.22404
459.00355,0.20978
457.07496,0.19079
455.14637,0.17885
453.21779,0.17103
451.28920,0.16090
449.36061,0.15038
447.43203,0.14101
445.50344,0.13113
443.57485,0.12205
441.64627,0.11838
439.71768,0.11530
437.78910,0.11022
435.86051,0.10808
433.93192,0.10267
432.00334,0.09532
430.07475,0.09716
428.14616,0.09867
426.21758,0.09164
424.28899,0.08553
422.36040,0.08229
420.43182,0.07294
418.50323,0.05671
416.57465,0.04829
414.64606,0.04079
412.71747,0.03239
410.78889,0.03063
408.86030,0.02155
406.93171,0.00596
405.00313,0.00000
403.07454,0.00525
401.14596,0.00872
399.21737,0.00000
