3747.24323,0.00071
3745.31464,0.00299
3743.38605,0.00000
3741.45747,0.00057
3739.52888,0.00409
3737.60030,0.00534
3735.67171,0.00483
3733.74312,0.00416
3731.81454,0.00450
3729.88595,0.00516
3727.95736,0.00715
3726.02878,0.00823
3724.10019,0.00844
3722.17161,0.01005
3720.24302,0.01125
3718.31443,0.01358
3716.38585,0.01622
3714.45726,0.01982
3712.52867,0.02327
3710.60009,0.02439
3708.67150,0.02739
3706.74291,0.03090
3704.81433,0.03545
3702.88574,0.03945
3700.95716,0.04121
3699.02857,0.04355
3697.09998,0.04496
3695.17140,0.04618
3693.24281,0.04673
3691.31422,0.04748
3689.38564,0.04763
3687.45705,0.04670
3685.52846,0.04912
3683.59988,0.05249
3681.67129,0.05602
3679.74271,0.05972
3677.81412,0.06464
3675.88553,0.06806
3673.95695,0.06956
3672.02836,0.07568
3670.09977,0.07989
3668.17119,0.08222
3666.24260,0.08762
3664.31402,0.09281
3662.38543,0.09764
3660.45684,0.10175
3658.52826,0.10654
3656.59967,0.11054
3654.67108,0.11275
3652.74250,0.11753
3650.81391,0.12189
3648.88532,0.12296
3646.95674,0.12385
3645.02815,0.12725
3643.09957,0.13149
3641.17098,0.13467
3639.24239,0.13749
3637.31381,0.14013
3635.38522,0.14325
3633.45663,0.14638
3631.52805,0.15032
3629.59946,0.15263
3627.67088,0.15052
3625.74229,0.15207
3623.81370,0.15488
3621.88512,0.15600
3619.95653,0.15604
3618.02794,0.15323
3616.09936,0.15183
3614.17077,0.15093
3612.24218,0.14916
3610.31360,0.14840
3608.38501,0.14678
3606.45643,0.14501
3604.52784,0.14436
3602.59925,0.14389
3600.67067,0.14318
3598.74208,0.14243
3596.81349,0.14179
3594.88491,0.14117
3592.95632,0.14069
3591.02774,0.14097
3589.09915,0.14106
3587.17056,0.13972
3585.24198,0.13933
3583.31339,0.14038
3581.38480,0.14099
3579.45622,0.14155
3577.52763,0.14246
3575.59904,0.14325
3573.67046,0.14375
3571.74187,0.14441
3569.81329,0.14574
3567.88470,0.14634
3565.95611,0.14587
3564.02753,0.14686
3562.09894,0.14870
3560.17035,0.14980
3558.24177,0.15052
3556.31318,0.15131
3554.38459,0.15239
3552.45601,0.15328
3550.52742,0.15414
3548.59884,0.15558
3546.67025,0.15683
3544.74166,0.15755
3542.81308,0.15822
3540.88449,0.15938
3538.95590,0.16082
3537.02732,0.16157
3535.09873,0.16210
3533.17015,0.16333
3531.24156,0.16471
3529.31297,0.16557
3527.38439,0.16625
3525.45580,0.16722
3523.52721,0.16842
3521.59863,0.16930
3519.67004,0.17016
3517.74145,0.17134
3515.81287,0.17236
3513.88428,0.17310
3511.95570,0.17393
3510.02711,0.17502
3508.09852,0.17569
3506.16994,0.17640
3504.24135,0.17752
3502.31276,0.17828
3500.38418,0.17929
3498.45559,0.18041
3496.52701,0.18124
3494.59842,0.18174
3492.66983,0.18218
3490.74125,0.18341
3488.81266,0.18454
3486.88407,0.18523
3484.95549,0.18601
3483.02690,0.18697
3481.09831,0.18783
3479.16973,0.18838
3477.24114,0.18914
3475.31256,0.18981
3473.38397,0.19060
3471.45538,0.19121
3469.52680,0.19174
3467.59821,0.19269
3465.66962,0.19326
3463.74104,0.19370
3461.81245,0.19409
3459.88386,0.19493
3457.95528,0.19623
3456.02669,0.19686
3454.09811,0.19725
3452.16952,0.19780
3450.24093,0.19869
3448.31235,0.19947
3446.38376,0.19976
3444.45517,0.20035
3442.52659,0.20112
3440.59800,0.20174
3438.66942,0.20235
3436.74083,0.20297
3434.81224,0.20345
3432.88366,0.20401
3430.95507,0.20447
3429.02648,0.20458
3427.09790,0.20469
3425.16931,0.20529
3423.24072,0.20614
3421.31214,0.20641
3419.38355,0.20679
3417.45497,0.20767
3415.52638,0.20802
3413.59779,0.20793
3411.66921,0.20820
3409.74062,0.20891
3407.81203,0.20954
3405.88345,0.20985
3403.95486,0.20986
3402.02628,0.20999
3400.09769,0.21041
3398.16910,0.21071
3396.24052,0.21082
3394.31193,0.21090
3392.38334,0.21108
3390.45476,0.21136
3388.52617,0.21171
3386.59758,0.21182
3384.66900,0.21186
3382.74041,0.21226
3380.81183,0.21254
3378.88324,0.21284
3376.95465,0.21318
3375.02607,0.21305
3373.09748,0.21287
3371.16889,0.21287
3369.24031,0.21292
3367.31172,0.21317
3365.38314,0.21345
3363.45455,0.21353
3361.52596,0.21394
3359.59738,0.21446
3357.66879,0.21447
3355.74020,0.21447
3353.81162,0.21466
3351.88303,0.21475
3349.95444,0.21482
3348.02586,0.21497
3346.09727,0.21500
3344.16869,0.21484
3342.24010,0.21503
3340.31151,0.21553
3338.38293,0.21556
3336.45434,0.21533
3334.52575,0.21506
3332.59717,0.21482
3330.66858,0.21496
3328.73999,0.21499
3326.81141,0.21501
3324.88282,0.21516
3322.95424,0.21507
3321.02565,0.21492
3319.09706,0.21458
3317.16848,0.21438
3315.23989,0.21463
3313.31130,0.21475
3311.38272,0.21442
3309.45413,0.21411
3307.52555,0.21426
3305.59696,0.21446
3303.66837,0.21425
3301.73979,0.21391
3299.81120,0.21374
3297.88261,0.21351
3295.95403,0.21311
3294.02544,0.21268
3292.09685,0.21225
3290.16827,0.21223
3288.23968,0.21223
3286.31110,0.21174
3284.38251,0.21122
3282.45392,0.21087
3280.52534,0.21034
3278.59675,0.20960
3276.66816,0.20923
3274.73958,0.20888
3272.81099,0.20802
3270.88241,0.20702
3268.95382,0.20631
3267.02523,0.20582
3265.09665,0.20504
3263.16806,0.20410
3261.23947,0.20330
3259.31089,0.20232
3257.38230,0.20126
3255.45371,0.20055
3253.52513,0.19988
3251.59654,0.19892
3249.66796,0.19819
3247.73937,0.19745
3245.81078,0.19633
3243.88220,0.19537
3241.95361,0.19485
3240.02502,0.19419
3238.09644,0.19328
3236.16785,0.19255
3234.23927,0.19181
3232.31068,0.19108
3230.38209,0.19033
3228.45351,0.18943
3226.52492,0.18868
3224.59633,0.18805
3222.66775,0.18759
3220.73916,0.18692
3218.81057,0.18596
3216.88199,0.18513
3214.95340,0.18450
3213.02482,0.18405
3211.09623,0.18347
3209.16764,0.18262
3207.23906,0.18180
3205.31047,0.18109
3203.38188,0.18040
3201.45330,0.17978
3199.52471,0.17921
3197.59612,0.17857
3195.66754,0.17788
3193.73895,0.17702
3191.81037,0.17618
3189.88178,0.17537
3187.95319,0.17443
3186.02461,0.17365
3184.09602,0.17306
3182.16743,0.17238
3180.23885,0.17150
3178.31026,0.17059
3176.38168,0.16974
3174.45309,0.16892
3172.52450,0.16815
3170.59592,0.16736
3168.66733,0.16651
3166.73874,0.16561
3164.81016,0.16493
3162.88157,0.16436
3160.95298,0.16377
3159.02440,0.16320
3157.09581,0.16240
3155.16723,0.16169
3153.23864,0.16105
3151.31005,0.16027
3149.38147,0.15971
3147.45288,0.15915
3145.52429,0.15825
3143.59571,0.15739
3141.66712,0.15695
3139.73854,0.15655
3137.80995,0.15604
3135.88136,0.15538
3133.95278,0.15458
3132.02419,0.15419
3130.09560,0.15395
3128.16702,0.15342
3126.23843,0.15279
3124.30984,0.15213
3122.38126,0.15165
3120.45267,0.15130
3118.52409,0.15095
3116.59550,0.15066
3114.66691,0.15036
3112.73833,0.15006
3110.80974,0.14971
3108.88115,0.14940
3106.95257,0.14903
3105.02398,0.14843
3103.09540,0.14794
3101.16681,0.14772
3099.23822,0.14755
3097.30964,0.14728
3095.38105,0.14689
3093.45246,0.14652
3091.52388,0.14632
3089.59529,0.14621
3087.66670,0.14600
3085.73812,0.14558
3083.80953,0.14508
3081.88095,0.14459
3079.95236,0.14419
3078.02377,0.14384
3076.09519,0.14346
3074.16660,0.14309
3072.23801,0.14258
3070.30943,0.14213
3068.38084,0.14189
3066.45225,0.14154
3064.52367,0.14106
3062.59508,0.14041
3060.66650,0.13959
3058.73791,0.13878
3056.80932,0.13820
3054.88074,0.13767
3052.95215,0.13696
3051.02356,0.13640
3049.09498,0.13610
3047.16639,0.13569
3045.23781,0.13498
3043.30922,0.13425
3041.38063,0.13386
3039.45205,0.13364
3037.52346,0.13318
3035.59487,0.13250
3033.66629,0.13207
3031.73770,0.13173
3029.80911,0.13113
3027.88053,0.13074
3025.95194,0.13053
3024.02336,0.13023
3022.09477,0.12986
3020.16618,0.12962
3018.23760,0.12968
3016.30901,0.12957
3014.38042,0.12939
3012.45184,0.12953
3010.52325,0.12976
3008.59467,0.13013
3006.66608,0.13073
3004.73749,0.13120
3002.80891,0.13137
3000.88032,0.13153
2998.95173,0.13210
2997.02315,0.13309
2995.09456,0.13405
2993.16597,0.13501
2991.23739,0.13624
2989.30880,0.13758
2987.38022,0.13891
2985.45163,0.14045
2983.52304,0.14238
2981.59446,0.14440
2979.66587,0.14628
2977.73728,0.14835
2975.80870,0.15057
2973.88011,0.15263
2971.95153,0.15459
2970.02294,0.15680
2968.09435,0.15919
2966.16577,0.16143
2964.23718,0.16371
2962.30859,0.16613
2960.38001,0.16855
2958.45142,0.17086
2956.52283,0.17302
2954.59425,0.17510
2952.66566,0.17708
2950.73708,0.17904
2948.80849,0.18136
2946.87990,0.18418
2944.95132,0.18729
2943.02273,0.19103
2941.09414,0.19541
2939.16556,0.20013
2937.23697,0.20513
2935.30838,0.20994
2933.37980,0.21451
2931.45121,0.21890
2929.52263,0.22300
2927.59404,0.22675
2925.66545,0.22962
2923.73687,0.23162
2921.80828,0.23299
2919.87969,0.23325
2917.95111,0.23050
2916.02252,0.22309
2914.09394,0.21310
2912.16535,0.20361
2910.23676,0.19576
2908.30818,0.18968
2906.37959,0.18496
2904.45100,0.18091
2902.52242,0.17738
2900.59383,0.17445
2898.66524,0.17167
2896.73666,0.16884
2894.80807,0.16593
2892.87949,0.16317
2890.95090,0.16079
2889.02231,0.15831
2887.09373,0.15601
2885.16514,0.15418
2883.23655,0.15241
2881.30797,0.15097
2879.37938,0.15019
2877.45080,0.14984
2875.52221,0.14975
2873.59362,0.14975
2871.66504,0.14985
2869.73645,0.15033
2867.80786,0.15109
2865.87928,0.15217
2863.95069,0.15410
2862.02210,0.15743
2860.09352,0.16253
2858.16493,0.16887
2856.23635,0.17518
2854.30776,0.17960
2852.37917,0.18091
2850.45059,0.17833
2848.52200,0.17096
2846.59341,0.16038
2844.66483,0.14932
2842.73624,0.13967
2840.80766,0.13176
2838.87907,0.12501
2836.95048,0.11947
2835.02190,0.11486
2833.09331,0.11122
2831.16472,0.10842
2829.23614,0.10582
2827.30755,0.10348
2825.37896,0.10126
2823.45038,0.09928
2821.52179,0.09762
2819.59321,0.09613
2817.66462,0.09487
2815.73603,0.09352
2813.80745,0.09218
2811.87886,0.09104
2809.95027,0.08993
2808.02169,0.08881
2806.09310,0.08778
2804.16451,0.08693
2802.23593,0.08617
2800.30734,0.08529
2798.37876,0.08432
2796.45017,0.08339
2794.52158,0.08252
2792.59300,0.08180
2790.66441,0.08111
2788.73582,0.08046
2786.80724,0.07992
2784.87865,0.07923
2782.95007,0.07854
2781.02148,0.07795
2779.09289,0.07739
2777.16431,0.07681
2775.23572,0.07627
2773.30713,0.07593
2771.37855,0.07539
2769.44996,0.07464
2767.52137,0.07408
2765.59279,0.07369
2763.66420,0.07330
2761.73562,0.07285
2759.80703,0.07242
2757.87844,0.07204
2755.94986,0.07167
2754.02127,0.07129
2752.09268,0.07096
2750.16410,0.07064
2748.23551,0.07025
2746.30693,0.06991
2744.37834,0.06967
2742.44975,0.06937
2740.52117,0.06885
2738.59258,0.06831
2736.66399,0.06796
2734.73541,0.06769
2732.80682,0.06739
2730.87823,0.06700
2728.94965,0.06673
2727.02106,0.06656
2725.09248,0.06615
2723.16389,0.06564
2721.23530,0.06514
2719.30672,0.06470
2717.37813,0.06439
2715.44954,0.06399
2713.52096,0.06354
2711.59237,0.06304
2709.66379,0.06252
2707.73520,0.06219
2705.80661,0.06193
2703.87803,0.06164
2701.94944,0.06123
2700.02085,0.06073
2698.09227,0.06042
2696.16368,0.06010
2694.23509,0.05967
2692.30651,0.05941
2690.37792,0.05934
2688.44934,0.05911
2686.52075,0.05861
2684.59216,0.05815
2682.66358,0.05793
2680.73499,0.05776
2678.80640,0.05742
2676.87782,0.05704
2674.94923,0.05662
2673.02064,0.05616
2671.09206,0.05598
2669.16347,0.05564
2667.23489,0.05518
2665.30630,0.05493
2663.37771,0.05460
2661.44913,0.05422
2659.52054,0.05387
2657.59195,0.05356
2655.66337,0.05332
2653.73478,0.05305
2651.80620,0.05274
2649.87761,0.05248
2647.94902,0.05228
2646.02044,0.05198
2644.09185,0.05161
2642.16326,0.05129
2640.23468,0.05091
2638.30609,0.05057
2636.37750,0.05035
2634.44892,0.05002
2632.52033,0.04962
2630.59175,0.04928
2628.66316,0.04894
2626.73457,0.04869
2624.80599,0.04851
2622.87740,0.04827
2620.94881,0.04800
2619.02023,0.04770
2617.09164,0.04739
2615.16306,0.04702
2613.23447,0.04671
2611.30588,0.04640
2609.37730,0.04606
2607.44871,0.04581
2605.52012,0.04554
2603.59154,0.04517
2601.66295,0.04478
2599.73436,0.04452
2597.80578,0.04432
2595.87719,0.04407
2593.94861,0.04378
2592.02002,0.04349
2590.09143,0.04323
2588.16285,0.04287
2586.23426,0.04246
2584.30567,0.04214
2582.37709,0.04180
2580.44850,0.04149
2578.51991,0.04126
2576.59133,0.04101
2574.66274,0.04078
2572.73416,0.04053
2570.80557,0.04010
2568.87698,0.03974
2566.94840,0.03945
2565.01981,0.03903
2563.09122,0.03884
2561.16264,0.03869
2559.23405,0.03833
2557.30547,0.03803
2555.37688,0.03784
2553.44829,0.03766
2551.51971,0.03735
2549.59112,0.03704
2547.66253,0.03678
2545.73395,0.03660
2543.80536,0.03650
2541.87677,0.03631
2539.94819,0.03599
2538.01960,0.03570
2536.09102,0.03550
2534.16243,0.03523
2532.23384,0.03485
2530.30526,0.03461
2528.37667,0.03442
2526.44808,0.03403
2524.51950,0.03368
2522.59091,0.03357
2520.66233,0.03335
2518.73374,0.03303
2516.80515,0.03276
2514.87657,0.03250
2512.94798,0.03232
2511.01939,0.03199
2509.09081,0.03168
2507.16222,0.03136
2505.23363,0.03087
2503.30505,0.03056
2501.37646,0.03036
2499.44788,0.03013
2497.51929,0.02988
2495.59070,0.02965
2493.66212,0.02938
2491.73353,0.02898
2489.80494,0.02865
2487.87636,0.02840
2485.94777,0.02816
2484.01919,0.02788
2482.09060,0.02755
2480.16201,0.02733
2478.23343,0.02710
2476.30484,0.02676
2474.37625,0.02648
2472.44767,0.02622
2470.51908,0.02585
2468.59049,0.02549
2466.66191,0.02515
2464.73332,0.02489
2462.80474,0.02462
2460.87615,0.02429
2458.94756,0.02414
2457.01898,0.02398
2455.09039,0.02369
2453.16180,0.02335
2451.23322,0.02299
2449.30463,0.02270
2447.37604,0.02240
2445.44746,0.02208
2443.51887,0.02180
2441.59029,0.02166
2439.66170,0.02155
2437.73311,0.02128
2435.80453,0.02093
2433.87594,0.02061
2431.94735,0.02030
2430.01877,0.01997
2428.09018,0.01970
2426.16160,0.01947
2424.23301,0.01916
2422.30442,0.01893
2420.37584,0.01866
2418.44725,0.01833
2416.51866,0.01812
2414.59008,0.01792
2412.66149,0.01764
2410.73290,0.01736
2408.80432,0.01708
2406.87573,0.01681
2404.94715,0.01658
2403.01856,0.01635
2401.08997,0.01609
2399.16139,0.01583
2397.23280,0.01561
2395.30421,0.01539
2393.37563,0.01518
2391.44704,0.01502
2389.51846,0.01481
2387.58987,0.01459
2385.66128,0.01435
2383.73270,0.01421
2381.80411,0.01410
2379.87552,0.01391
2377.94694,0.01382
2376.01835,0.01378
2374.08976,0.01387
2372.16118,0.01400
2370.23259,0.01401
2368.30401,0.01393
2366.37542,0.01375
2364.44683,0.01366
2362.51825,0.01354
2360.58966,0.01345
2358.66107,0.01328
2356.73249,0.01284
2354.80390,0.01234
2352.87532,0.01175
2350.94673,0.01123
2349.01814,0.01110
2347.08956,0.01122
2345.16097,0.01128
2343.23238,0.01135
2341.30380,0.01155
2339.37521,0.01157
2337.44662,0.01127
2335.51804,0.01085
2333.58945,0.01064
2331.66087,0.01048
2329.73228,0.01014
2327.80369,0.00979
2325.87511,0.00947
2323.94652,0.00923
2322.01793,0.00897
2320.08935,0.00866
2318.16076,0.00845
2316.23217,0.00827
2314.30359,0.00804
2312.37500,0.00762
2310.44642,0.00731
2308.51783,0.00720
2306.58924,0.00705
2304.66066,0.00696
2302.73207,0.00683
2300.80348,0.00658
2298.87490,0.00639
2296.94631,0.00627
2295.01773,0.00616
2293.08914,0.00602
2291.16055,0.00584
2289.23197,0.00562
2287.30338,0.00534
2285.37479,0.00515
2283.44621,0.00512
2281.51762,0.00502
2279.58903,0.00486
2277.66045,0.00473
2275.73186,0.00457
2273.80328,0.00442
2271.87469,0.00430
2269.94610,0.00415
2268.01752,0.00400
2266.08893,0.00389
2264.16034,0.00374
2262.23176,0.00362
2260.30317,0.00361
2258.37459,0.00358
2256.44600,0.00353
2254.51741,0.00335
2252.58883,0.00312
2250.66024,0.00299
2248.73165,0.00295
2246.80307,0.00286
2244.87448,0.00273
2242.94589,0.00270
2241.01731,0.00262
2239.08872,0.00251
2237.16014,0.00244
2235.23155,0.00242
2233.30296,0.00241
2231.37438,0.00222
2229.44579,0.00203
2227.51720,0.00199
2225.58862,0.00188
2223.66003,0.00175
2221.73145,0.00161
2219.80286,0.00143
2217.87427,0.00139
2215.94569,0.00136
2214.01710,0.00120
2212.08851,0.00109
2210.15993,0.00109
2208.23134,0.00104
2206.30275,0.00090
2204.37417,0.00084
2202.44558,0.00079
2200.51700,0.00065
2198.58841,0.00057
2196.65982,0.00055
2194.73124,0.00064
2192.80265,0.00078
2190.87406,0.00077
2188.94548,0.00067
2187.01689,0.00054
2185.08830,0.00045
2183.15972,0.00050
2181.23113,0.00052
2179.30255,0.00044
2177.37396,0.00038
2175.44537,0.00044
2173.51679,0.00045
2171.58820,0.00032
2169.65961,0.00022
2167.73103,0.00027
2165.80244,0.00044
2163.87386,0.00046
2161.94527,0.00046
2160.01668,0.00057
2158.08810,0.00052
2156.15951,0.00049
2154.23092,0.00050
2152.30234,0.00043
2150.37375,0.00056
2148.44516,0.00066
2146.51658,0.00048
2144.58799,0.00039
2142.65941,0.00043
2140.73082,0.00041
2138.80223,0.00049
2136.87365,0.00055
2134.94506,0.00047
2133.01647,0.00043
2131.08789,0.00039
2129.15930,0.00030
2127.23072,0.00024
2125.30213,0.00027
2123.37354,0.00031
2121.44496,0.00028
2119.51637,0.00028
2117.58778,0.00026
2115.65920,0.00017
2113.73061,0.00016
2111.80202,0.00013
2109.87344,0.00000
2107.94485,0.00007
2106.01627,0.00023
2104.08768,0.00018
2102.15909,0.00015
2100.23051,0.00018
2098.30192,0.00009
2096.37333,0.00003
2094.44475,0.00008
2092.51616,0.00015
2090.58758,0.00017
2088.65899,0.00015
2086.73040,0.00012
2084.80182,0.00007
2082.87323,0.00002
2080.94464,0.00007
2079.01606,0.00017
2077.08747,0.00012
2075.15888,0.00000
2073.23030,0.00005
2071.30171,0.00014
2069.37313,0.00003
2067.44454,-0.00003
2065.51595,0.00006
2063.58737,0.00010
2061.65878,0.00009
2059.73019,0.00012
2057.80161,0.00011
2055.87302,0.00009
2053.94443,0.00013
2052.01585,0.00013
2050.08726,0.00021
2048.15868,0.00035
2046.23009,0.00040
2044.30150,0.00045
2042.37292,0.00053
2040.44433,0.00073
2038.51574,0.00111
2036.58716,0.00137
2034.65857,0.00140
2032.72999,0.00152
2030.80140,0.00176
2028.87281,0.00184
2026.94423,0.00186
2025.01564,0.00195
2023.08705,0.00204
2021.15847,0.00208
2019.22988,0.00211
2017.30129,0.00216
2015.37271,0.00219
2013.44412,0.00240
2011.51554,0.00271
2009.58695,0.00294
2007.65836,0.00314
2005.72978,0.00326
2003.80119,0.00327
2001.87260,0.00326
1999.94402,0.00332
1998.01543,0.00335
1996.08685,0.00334
1994.15826,0.00338
1992.22967,0.00320
1990.30109,0.00295
1988.37250,0.00295
1986.44391,0.00292
1984.51533,0.00271
1982.58674,0.00256
1980.65815,0.00251
1978.72957,0.00248
1976.80098,0.00246
1974.87240,0.00239
1972.94381,0.00229
1971.01522,0.00216
1969.08664,0.00195
1967.15805,0.00166
1965.22946,0.00134
1963.30088,0.00114
1961.37229,0.00097
1959.44371,0.00088
1957.51512,0.00084
1955.58653,0.00074
1953.65795,0.00066
1951.72936,0.00060
1949.80077,0.00053
1947.87219,0.00040
1945.94360,0.00040
1944.01501,0.00050
1942.08643,0.00037
1940.15784,0.00025
1938.22926,0.00026
1936.30067,0.00018
1934.37208,0.00007
1932.44350,0.00000
1930.51491,0.00002
1928.58632,0.00007
1926.65774,0.00004
1924.72915,0.00000
1922.80056,-0.00012
1920.87198,0.00006
1918.94339,0.00037
1917.01481,0.00031
1915.08622,0.00057
1913.15763,0.00117
1911.22905,0.00161
1909.30046,0.00211
1907.37187,0.00262
1905.44329,0.00320
1903.51470,0.00383
1901.58612,0.00442
1899.65753,0.00492
1897.72894,0.00538
1895.80036,0.00597
1893.87177,0.00651
1891.94318,0.00712
1890.01460,0.00745
1888.08601,0.00740
1886.15742,0.00772
1884.22884,0.00811
1882.30025,0.00838
1880.37167,0.00857
1878.44308,0.00865
1876.51449,0.00878
1874.58591,0.00890
1872.65732,0.00920
1870.72873,0.00930
1868.80015,0.00880
1866.87156,0.00818
1864.94298,0.00795
1863.01439,0.00759
1861.08580,0.00698
1859.15722,0.00636
1857.22863,0.00548
1855.30004,0.00471
1853.37146,0.00385
1851.44287,0.00308
1849.51428,0.00241
1847.58570,0.00179
1845.65711,0.00159
1843.72853,0.00060
1841.79994,0.00000
1839.87135,0.00004
1837.94277,-0.00024
1836.01418,-0.00036
1834.08559,-0.00048
1832.15701,-0.00023
1830.22842,-0.00031
1828.29984,-0.00061
1826.37125,-0.00022
1824.44266,-0.00010
1822.51408,0.00027
1820.58549,0.00094
1818.65690,0.00141
1816.72832,0.00187
1814.79973,0.00255
1812.87114,0.00359
1810.94256,0.00450
1809.01397,0.00538
1807.08539,0.00640
1805.15680,0.00765
1803.22821,0.00923
1801.29963,0.01071
1799.37104,0.01205
1797.44245,0.01365
1795.51387,0.01566
1793.58528,0.01770
1791.65669,0.01913
1789.72811,0.02074
1787.79952,0.02323
1785.87094,0.02561
1783.94235,0.02768
1782.01376,0.02983
1780.08518,0.03187
1778.15659,0.03395
1776.22800,0.03617
1774.29942,0.03857
1772.37083,0.04017
1770.44225,0.04148
1768.51366,0.04358
1766.58507,0.04532
1764.65649,0.04749
1762.72790,0.04969
1760.79931,0.05127
1758.87073,0.05369
1756.94214,0.05603
1755.01355,0.05857
1753.08497,0.06195
1751.15638,0.06494
1749.22780,0.06779
1747.29921,0.07137
1745.37062,0.07532
1743.44204,0.07950
1741.51345,0.08388
1739.58486,0.08787
1737.65628,0.09177
1735.72769,0.09596
1733.79911,0.09823
1731.87052,0.10009
1729.94193,0.10349
1728.01335,0.10638
1726.08476,0.10932
1724.15617,0.11211
1722.22759,0.11509
1720.29900,0.11899
1718.37041,0.12203
1716.44183,0.12426
1714.51324,0.12676
1712.58466,0.12973
1710.65607,0.13257
1708.72748,0.13509
1706.79890,0.13773
1704.87031,0.13976
1702.94172,0.14282
1701.01314,0.14561
1699.08455,0.14677
1697.15596,0.14993
1695.22738,0.15199
1693.29879,0.15384
1691.37021,0.15738
1689.44162,0.15972
1687.51303,0.16278
1685.58445,0.16592
1683.65586,0.16657
1681.72727,0.16871
1679.79869,0.17166
1677.87010,0.17458
1675.94152,0.17701
1674.01293,0.17852
1672.08434,0.18092
1670.15576,0.18288
1668.22717,0.18385
1666.29858,0.18561
1664.37000,0.18771
1662.44141,0.18855
1660.51282,0.18922
1658.58424,0.19029
1656.65565,0.19155
1654.72707,0.19311
1652.79848,0.19056
1650.86989,0.18919
1648.94131,0.19133
1647.01272,0.19134
1645.08413,0.19017
1643.15555,0.19033
1641.22696,0.19094
1639.29838,0.19152
1637.36979,0.19221
1635.44120,0.19143
1633.51262,0.19043
1631.58403,0.19117
1629.65544,0.19094
1627.72686,0.18990
1625.79827,0.18884
1623.86968,0.18726
1621.94110,0.18490
1620.01251,0.18354
1618.08393,0.18285
1616.15534,0.17973
1614.22675,0.17784
1612.29817,0.17741
1610.36958,0.17660
1608.44099,0.17569
1606.51241,0.17437
1604.58382,0.17296
1602.65524,0.17117
1600.72665,0.16964
1598.79806,0.16820
1596.86948,0.16678
1594.94089,0.16540
1593.01230,0.16373
1591.08372,0.16206
1589.15513,0.16010
1587.22654,0.15838
1585.29796,0.15646
1583.36937,0.15453
1581.44079,0.15264
1579.51220,0.15123
1577.58361,0.15013
1575.65503,0.14681
1573.72644,0.14483
1571.79785,0.14485
1569.86927,0.14357
1567.94068,0.14195
1566.01209,0.14156
1564.08351,0.14122
1562.15492,0.14188
1560.22634,0.14271
1558.29775,0.13985
1556.36916,0.13925
1554.44058,0.14004
1552.51199,0.13986
1550.58340,0.14024
1548.65482,0.14003
1546.72623,0.14016
1544.79765,0.13997
1542.86906,0.13954
1540.94047,0.13930
1539.01189,0.13656
1537.08330,0.13599
1535.15471,0.13641
1533.22613,0.13500
1531.29754,0.13353
1529.36895,0.13310
1527.44037,0.13237
1525.51178,0.13100
1523.58320,0.13087
1521.65461,0.13023
1519.72602,0.12956
1517.79744,0.13033
1515.86885,0.13022
1513.94026,0.12948
1512.01168,0.12798
1510.08309,0.12607
1508.15451,0.12400
1506.22592,0.11869
1504.29733,0.11402
1502.36875,0.11184
1500.44016,0.10895
1498.51157,0.10539
1496.58299,0.10136
1494.65440,0.09761
1492.72581,0.09566
1490.79723,0.09364
1488.86864,0.09086
1486.94006,0.08902
1485.01147,0.08816
1483.08288,0.08819
1481.15430,0.08870
1479.22571,0.08985
1477.29712,0.09201
1475.36854,0.09488
1473.43995,0.09873
1471.51137,0.10341
1469.58278,0.10892
1467.65419,0.11439
1465.72561,0.11757
1463.79702,0.11862
1461.86843,0.11948
1459.93985,0.12106
1458.01126,0.12216
1456.08267,0.12134
1454.15409,0.12157
1452.22550,0.12212
1450.29692,0.12205
1448.36833,0.12165
1446.43974,0.12072
1444.51116,0.12031
1442.58257,0.11993
1440.65398,0.11978
1438.72540,0.12032
1436.79681,0.11978
1434.86822,0.11890
1432.93964,0.11934
1431.01105,0.11973
1429.08247,0.11944
1427.15388,0.11956
1425.22529,0.11988
1423.29671,0.11985
1421.36812,0.12023
1419.43953,0.12009
1417.51095,0.11911
1415.58236,0.11890
1413.65378,0.11851
1411.72519,0.11784
1409.79660,0.11706
1407.86802,0.11621
1405.93943,0.11556
1404.01084,0.11424
1402.08226,0.11322
1400.15367,0.11228
1398.22508,0.11095
1396.29650,0.11025
1394.36791,0.10921
1392.43933,0.10792
1390.51074,0.10745
1388.58215,0.10685
1386.65357,0.10500
1384.72498,0.10375
1382.79639,0.10464
1380.86781,0.10628
1378.93922,0.10735
1377.01064,0.10760
1375.08205,0.10706
1373.15346,0.10600
1371.22488,0.10519
1369.29629,0.10416
1367.36770,0.10257
1365.43912,0.10129
1363.51053,0.09966
1361.58194,0.09793
1359.65336,0.09681
1357.72477,0.09594
1355.79619,0.09522
1353.86760,0.09433
1351.93901,0.09371
1350.01043,0.09331
1348.08184,0.09278
1346.15325,0.09215
1344.22467,0.09163
1342.29608,0.09149
1340.36750,0.09116
1338.43891,0.09060
1336.51032,0.09017
1334.58174,0.08991
1332.65315,0.08972
1330.72456,0.08940
1328.79598,0.08910
1326.86739,0.08883
1324.93880,0.08866
1323.01022,0.08863
1321.08163,0.08861
1319.15305,0.08851
1317.22446,0.08826
1315.29587,0.08815
1313.36729,0.08797
1311.43870,0.08748
1309.51011,0.08713
1307.58153,0.08714
1305.65294,0.08726
1303.72435,0.08737
1301.79577,0.08754
1299.86718,0.08779
1297.93860,0.08829
1296.01001,0.08895
1294.08142,0.08975
1292.15284,0.09072
1290.22425,0.09179
1288.29566,0.09301
1286.36708,0.09431
1284.43849,0.09577
1282.50991,0.09739
1280.58132,0.09905
1278.65273,0.10064
1276.72415,0.10224
1274.79556,0.10400
1272.86697,0.10577
1270.93839,0.10772
1269.00980,0.10981
1267.08121,0.11212
1265.15263,0.11455
1263.22404,0.11690
1261.29546,0.11976
1259.36687,0.12299
1257.43828,0.12655
1255.50970,0.13077
1253.58111,0.13516
1251.65252,0.13949
1249.72394,0.14382
1247.79535,0.14824
1245.86677,0.15287
1243.93818,0.15712
1242.00959,0.16070
1240.08101,0.16432
1238.15242,0.16772
1236.22383,0.17056
1234.29525,0.17319
1232.36666,0.17548
1230.43807,0.17770
1228.50949,0.17975
1226.58090,0.18174
1224.65232,0.18385
1222.72373,0.18563
1220.79514,0.18741
1218.86656,0.18931
1216.93797,0.19137
1215.00938,0.19330
1213.08080,0.19537
1211.15221,0.19773
1209.22363,0.19939
1207.29504,0.20116
1205.36645,0.20315
1203.43787,0.20481
1201.50928,0.20627
1199.58069,0.20750
1197.65211,0.20884
1195.72352,0.21016
1193.79493,0.21155
1191.86635,0.21292
1189.93776,0.21435
1188.00918,0.21604
1186.08059,0.21758
1184.15200,0.21925
1182.22342,0.22083
1180.29483,0.22255
1178.36624,0.22497
1176.43766,0.22744
1174.50907,0.22992
1172.58048,0.23274
1170.65190,0.23584
1168.72331,0.23864
1166.79473,0.24140
1164.86614,0.24446
1162.93755,0.24695
1161.00897,0.24873
1159.08038,0.24976
1157.15179,0.25031
1155.22321,0.25125
1153.29462,0.25263
1151.36604,0.25415
1149.43745,0.25579
1147.50886,0.25762
1145.58028,0.25981
1143.65169,0.26255
1141.72310,0.26558
1139.79452,0.26844
1137.86593,0.27141
1135.93734,0.27519
1134.00876,0.27921
1132.08017,0.28270
1130.15159,0.28661
1128.22300,0.29128
1126.29441,0.29632
1124.36583,0.30156
1122.43724,0.30688
1120.50865,0.31271
1118.58007,0.31859
1116.65148,0.32375
1114.72290,0.32915
1112.79431,0.33522
1110.86572,0.34111
1108.93714,0.34714
1107.00855,0.35272
1105.07996,0.35710
1103.15138,0.36102
1101.22279,0.36402
1099.29420,0.36644
1097.36562,0.36854
1095.43703,0.37015
1093.50845,0.37127
1091.57986,0.37154
1089.65127,0.37174
1087.72269,0.37114
1085.79410,0.37028
1083.86551,0.37011
1081.93693,0.36926
1080.00834,0.36790
1078.07976,0.36662
1076.15117,0.36530
1074.22258,0.36342
1072.29400,0.36159
1070.36541,0.36116
1068.43682,0.36156
1066.50824,0.36116
1064.57965,0.35999
1062.65106,0.35919
1060.72248,0.35821
1058.79389,0.35679
1056.86531,0.35517
1054.93672,0.35369
1053.00813,0.35246
1051.07955,0.35097
1049.15096,0.35005
1047.22237,0.34980
1045.29379,0.35063
1043.36520,0.35244
1041.43661,0.35395
1039.50803,0.35578
1037.57944,0.35739
1035.65086,0.35830
1033.72227,0.35891
1031.79368,0.35849
1029.86510,0.35669
1027.93651,0.35400
1026.00792,0.35119
1024.07934,0.34848
1022.15075,0.34544
1020.22217,0.34188
1018.29358,0.33851
1016.36499,0.33549
1014.43641,0.33228
1012.50782,0.32931
1010.57923,0.32658
1008.65065,0.32301
1006.72206,0.31873
1004.79347,0.31485
1002.86489,0.31056
1000.93630,0.30569
999.00772,0.30078
997.07913,0.29512
995.15054,0.28976
993.22196,0.28481
991.29337,0.27925
989.36478,0.27339
987.43620,0.26688
985.50761,0.25959
983.57903,0.25180
981.65044,0.24376
979.72185,0.23520
977.79327,0.22611
975.86468,0.21746
973.93609,0.20840
972.00751,0.19843
970.07892,0.18893
968.15033,0.18005
966.22175,0.17177
964.29316,0.16410
962.36458,0.15684
960.43599,0.15043
958.50740,0.14480
956.57882,0.13981
954.65023,0.13559
952.72164,0.13180
950.79306,0.12809
948.86447,0.12483
946.93589,0.12251
945.00730,0.12100
943.07871,0.11951
941.15013,0.11773
939.22154,0.11654
937.29295,0.11577
935.36437,0.11444
933.43578,0.11289
931.50719,0.11145
929.57861,0.11018
927.65002,0.10909
925.72144,0.10811
923.79285,0.10731
921.86426,0.10685
919.93568,0.10679
918.00709,0.10675
916.07850,0.10641
914.14992,0.10547
912.22133,0.10369
910.29274,0.10080
908.36416,0.09661
906.43557,0.09151
904.50699,0.08577
902.57840,0.07983
900.64981,0.07394
898.72123,0.06809
896.79264,0.06250
894.86405,0.05744
892.93547,0.05333
891.00688,0.04936
889.07830,0.04536
887.14971,0.04204
885.22112,0.03903
883.29254,0.03578
881.36395,0.03225
879.43536,0.02919
877.50678,0.02632
875.57819,0.02315
873.64960,0.02031
871.72102,0.01732
869.79243,0.01441
867.86385,0.01200
865.93526,0.00948
864.00667,0.00689
862.07809,0.00477
860.14950,0.00336
858.22091,0.00216
856.29233,0.00139
854.36374,0.00083
852.43516,0.00000
850.50657,-0.00012
848.57798,0.00081
846.64940,0.00216
844.72081,0.00395
842.79222,0.00606
840.86364,0.00868
838.93505,0.01228
837.00646,0.01601
835.07788,0.01912
833.14929,0.02169
831.22071,0.02410
829.29212,0.02634
827.36353,0.02725
825.43495,0.02766
823.50636,0.02827
821.57777,0.02864
819.64919,0.02984
817.72060,0.03143
815.79201,0.03319
813.86343,0.03516
811.93484,0.03745
810.00626,0.04195
808.07767,0.04877
806.14908,0.05680
804.22050,0.06419
802.29191,0.06984
800.36332,0.07340
798.43474,0.07245
796.50615,0.06764
794.57757,0.06213
792.64898,0.05725
790.72039,0.05357
788.79181,0.05108
786.86322,0.04968
784.93463,0.04969
783.00605,0.05099
781.07746,0.05196
779.14887,0.05095
777.22029,0.04755
775.29170,0.04210
773.36312,0.03579
771.43453,0.03009
769.50594,0.02601
767.57736,0.02355
765.64877,0.02214
763.72018,0.02137
761.79160,0.02127
759.86301,0.02153
757.93443,0.02190
756.00584,0.02246
754.07725,0.02251
752.14867,0.02190
750.22008,0.02078
748.29149,0.01930
746.36291,0.01795
744.43432,0.01601
742.50573,0.01345
740.57715,0.01113
738.64856,0.00908
736.71998,0.00711
734.79139,0.00553
732.86280,0.00460
730.93422,0.00408
729.00563,0.00405
727.07704,0.00406
725.14846,0.00385
723.21987,0.00382
721.29129,0.00364
719.36270,0.00307
717.43411,0.00172
715.50553,0.00046
713.57694,0.00000
711.64835,-0.00007
709.71977,0.00070
707.79118,0.00196
705.86259,0.00383
703.93401,0.00636
702.00542,0.00941
700.07684,0.01379
698.14825,0.01879
696.21966,0.02260
694.29108,0.02256
692.36249,0.01873
690.43390,0.01460
688.50532,0.01142
686.57673,0.00889
684.64814,0.00711
682.71956,0.00557
680.79097,0.00424
678.86239,0.00329
676.93380,0.00209
675.00521,0.00124
673.07663,0.00081
671.14804,0.00000
669.21945,-0.00024
667.29087,-0.00048
665.36228,-0.00147
663.43370,-0.00194
661.50511,-0.00226
659.57652,-0.00271
657.64794,-0.00307
655.71935,-0.00303
653.79076,-0.00246
651.86218,-0.00177
649.93359,-0.00136
648.00500,-0.00178
646.07642,-0.00205
644.14783,-0.00138
642.21925,-0.00092
640.29066,-0.00118
638.36207,-0.00119
636.43349,-0.00080
634.50490,-0.00028
632.57631,0.00035
630.64773,-0.00004
628.71914,-0.00056
626.79056,0.00019
624.86197,0.00043
622.93338,0.00001
621.00480,0.00077
619.07621,0.00243
617.14762,0.00311
615.21904,0.00264
613.29045,0.00261
611.36186,0.00383
609.43328,0.00520
607.50469,0.00553
605.57611,0.00640
603.64752,0.00817
601.71893,0.00976
599.79035,0.01202
597.86176,0.01455
595.93317,0.01710
594.00459,0.02017
592.07600,0.02247
590.14742,0.02456
588.21883,0.02828
586.29024,0.03281
584.36166,0.03599
582.43307,0.03886
580.50448,0.04380
578.57590,0.04855
576.64731,0.05157
574.71872,0.05536
572.79014,0.05997
570.86155,0.06436
568.93297,0.06927
567.00438,0.07504
565.07579,0.08126
563.14721,0.08746
561.21862,0.09353
559.29003,0.09935
557.36145,0.10444
555.43286,0.10839
553.50427,0.11150
551.57569,0.11540
549.64710,0.12067
547.71852,0.12575
545.78993,0.13065
543.86134,0.13618
541.93276,0.14098
540.00417,0.14650
538.07558,0.15368
536.14700,0.15954
534.21841,0.16503
532.28983,0.16969
530.36124,0.17022
528.43265,0.16868
526.50407,0.16755
524.57548,0.16562
522.64689,0.16244
520.71831,0.15938
518.78972,0.15585
516.86113,0.15104
514.93255,0.14537
513.00396,0.13907
511.07538,0.13380
509.14679,0.12909
507.21820,0.12455
505.28962,0.12214
503.36103,0.12301
501.43244,0.12698
499.50386,0.13062
497.57527,0.13347
495.64669,0.13793
493.71810,0.14576
491.78951,0.15598
489.86093,0.16838
487.93234,0.18276
486.00375,0.19481
484.07517,0.20759
482.14658,0.21942
480.21799,0.22980
478.28941,0.24170
476.36082,0.24782
474.43224,0.25311
472.50365,0.25585
470.57506,0.25321
468.64648,0.24995
466.71789,0.23826
464.78930,0.22444
462.86072,0.21004
460.93213,0.19338
459.00355,0.18208
457.07496,0.17347
455.14637,0.16178
453.21779,0.14792
451.28920,0.13501
449.36061,0.12419
447.43203,0.11800
445.50344,0.11287
443.57485,0.10691
441.64627,0.10133
439.71768,0.09701
437.78910,0.09750
435.86051,0.09607
433.93192,0.09142
432.00334,0.08586
430.07475,0.08103
428.14616,0.07537
426.21758,0.06908
424.28899,0.06773
422.36040,0.06121
420.43182,0.05488
418.50323,0.05217
416.57465,0.04466
414.64606,0.03766
412.71747,0.02941
410.78889,0.02269
408.86030,0.01577
406.93171,0.01046
405.00313,0.00842
403.07454,0.00372
401.14596,0.00000
399.21737,0.00000
