3747.24323,0.00212
3745.31464,0.00607
3743.38605,0.00028
3741.45747,0.00000
3739.52888,0.00526
3737.60030,0.00726
3735.67171,0.00601
3733.74312,0.00432
3731.81454,0.00426
3729.88595,0.00505
3727.95736,0.00777
3726.02878,0.00880
3724.10019,0.00837
3722.17161,0.00985
3720.24302,0.01039
3718.31443,0.01263
3716.38585,0.01509
3714.45726,0.01836
3712.52867,0.02106
3710.60009,0.02003
3708.67150,0.02252
3706.74291,0.02581
3704.81433,0.03022
3702.88574,0.03407
3700.95716,0.03451
3699.02857,0.03649
3697.09998,0.03808
3695.17140,0.03939
3693.24281,0.04034
3691.31422,0.04184
3689.38564,0.04168
3687.45705,0.03881
3685.52846,0.04094
3683.59988,0.04493
3681.67129,0.04853
3679.74271,0.05158
3677.81412,0.05661
3675.88553,0.05925
3673.95695,0.05797
3672.02836,0.06472
3670.09977,0.06881
3668.17119,0.06918
3666.24260,0.07443
3664.31402,0.07926
3662.38543,0.08357
3660.45684,0.08700
3658.52826,0.09152
3656.59967,0.09440
3654.67108,0.09493
3652.74250,0.10046
3650.81391,0.10486
3648.88532,0.10422
3646.95674,0.10411
3645.02815,0.10759
3643.09957,0.11205
3641.17098,0.11460
3639.24239,0.11683
3637.31381,0.11916
3635.38522,0.12204
3633.45663,0.12460
3631.52805,0.12848
3629.59946,0.13078
3627.67088,0.12693
3625.74229,0.12856
3623.81370,0.13238
3621.88512,0.13418
3619.95653,0.13411
3618.02794,0.13031
3616.09936,0.12992
3614.17077,0.13022
3612.24218,0.12860
3610.31360,0.12830
3608.38501,0.12664
3606.45643,0.12462
3604.52784,0.12480
3602.59925,0.12554
3600.67067,0.12506
3598.74208,0.12452
3596.81349,0.12457
3594.88491,0.12399
3592.95632,0.12311
3591.02774,0.12400
3589.09915,0.12557
3587.17056,0.12411
3585.24198,0.12304
3583.31339,0.12454
3581.38480,0.12567
3579.45622,0.12636
3577.52763,0.12709
3575.59904,0.12797
3573.67046,0.12866
3571.74187,0.12973
3569.81329,0.13194
3567.88470,0.13269
3565.95611,0.13154
3564.02753,0.13218
3562.09894,0.13394
3560.17035,0.13506
3558.24177,0.13623
3556.31318,0.13751
3554.38459,0.13886
3552.45601,0.13969
3550.52742,0.14027
3548.59884,0.14193
3546.67025,0.14312
3544.74166,0.14357
3542.81308,0.14443
3540.88449,0.14560
3538.95590,0.14704
3537.02732,0.14825
3535.09873,0.14919
3533.17015,0.15015
3531.24156,0.15132
3529.31297,0.15242
3527.38439,0.15326
3525.45580,0.15430
3523.52721,0.15513
3521.59863,0.15587
3519.67004,0.15705
3517.74145,0.15828
3515.81287,0.15927
3513.88428,0.16036
3511.95570,0.16145
3510.02711,0.16224
3508.09852,0.16288
3506.16994,0.16379
3504.24135,0.16481
3502.31276,0.16526
3500.38418,0.16595
3498.45559,0.16706
3496.52701,0.16797
3494.59842,0.16886
3492.66983,0.16979
3490.74125,0.17096
3488.81266,0.17181
3486.88407,0.17228
3484.95549,0.17304
3483.02690,0.17389
3481.09831,0.17481
3479.16973,0.17567
3477.24114,0.17643
3475.31256,0.17694
3473.38397,0.17737
3471.45538,0.17795
3469.52680,0.17877
3467.59821,0.17965
3465.66962,0.18027
3463.74104,0.18090
3461.81245,0.18129
3459.88386,0.18185
3457.95528,0.18259
3456.02669,0.18319
3454.09811,0.18404
3452.16952,0.18471
3450.24093,0.18555
3448.31235,0.18624
3446.38376,0.18636
3444.45517,0.18679
3442.52659,0.18752
3440.59800,0.18831
3438.66942,0.18895
3436.74083,0.18940
3434.81224,0.18978
3432.88366,0.19014
3430.95507,0.19063
3429.02648,0.19139
3427.09790,0.19213
3425.16931,0.19254
3423.24072,0.19296
3421.31214,0.19314
3419.38355,0.19319
3417.45497,0.19353
3415.52638,0.19400
3413.59779,0.19460
3411.66921,0.19497
3409.74062,0.19533
3407.81203,0.19576
3405.88345,0.19608
3403.95486,0.19632
3402.02628,0.19631
3400.09769,0.19638
3398.16910,0.19653
3396.24052,0.19688
3394.31193,0.19733
3392.38334,0.19739
3390.45476,0.19761
3388.52617,0.19814
3386.59758,0.19848
3384.66900,0.19853
3382.74041,0.19844
3380.81183,0.19864
3378.88324,0.19908
3376.95465,0.19938
3375.02607,0.19953
3373.09748,0.19960
3371.16889,0.19954
3369.24031,0.19963
3367.31172,0.19996
3365.38314,0.20028
3363.45455,0.20065
3361.52596,0.20095
3359.59738,0.20119
3357.66879,0.20150
3355.74020,0.20167
3353.81162,0.20166
3351.88303,0.20175
3349.95444,0.20186
3348.02586,0.20171
3346.09727,0.20158
3344.16869,0.20182
3342.24010,0.20222
3340.31151,0.20240
3338.38293,0.20219
3336.45434,0.20195
3334.52575,0.20197
3332.59717,0.20207
3330.66858,0.20215
3328.73999,0.20218
3326.81141,0.20209
3324.88282,0.20196
3322.95424,0.20205
3321.02565,0.20207
3319.09706,0.20188
3317.16848,0.20186
3315.23989,0.20186
3313.31130,0.20187
3311.38272,0.20195
3309.45413,0.20187
3307.52555,0.20160
3305.59696,0.20138
3303.66837,0.20123
3301.73979,0.20110
3299.81120,0.20107
3297.88261,0.20093
3295.95403,0.20056
3294.02544,0.20017
3292.09685,0.19994
3290.16827,0.19981
3288.23968,0.19945
3286.31110,0.19887
3284.38251,0.19852
3282.45392,0.19847
3280.52534,0.19812
3278.59675,0.19745
3276.66816,0.19689
3274.73958,0.19617
3272.81099,0.19513
3270.88241,0.19425
3268.95382,0.19380
3267.02523,0.19334
3265.09665,0.19247
3263.16806,0.19154
3261.23947,0.19063
3259.31089,0.18968
3257.38230,0.18891
3255.45371,0.18814
3253.52513,0.18738
3251.59654,0.18681
3249.66796,0.18600
3247.73937,0.18507
3245.81078,0.18420
3243.88220,0.18331
3241.95361,0.18260
3240.02502,0.18200
3238.09644,0.18118
3236.16785,0.18024
3234.23927,0.17974
3232.31068,0.17925
3230.38209,0.17837
3228.45351,0.17775
3226.52492,0.17717
3224.59633,0.17644
3222.66775,0.17572
3220.73916,0.17500
3218.81057,0.17418
3216.88199,0.17313
3214.95340,0.17238
3213.02482,0.17198
3211.09623,0.17146
3209.16764,0.17068
3207.23906,0.17005
3205.31047,0.16962
3203.38188,0.16887
3201.45330,0.16805
3199.52471,0.16727
3197.59612,0.16658
3195.66754,0.16606
3193.73895,0.16542
3191.81037,0.16465
3189.88178,0.16379
3187.95319,0.16302
3186.02461,0.16231
3184.09602,0.16161
3182.16743,0.16089
3180.23885,0.16019
3178.31026,0.15962
3176.38168,0.15888
3174.45309,0.15789
3172.52450,0.15709
3170.59592,0.15662
3168.66733,0.15597
3166.73874,0.15508
3164.81016,0.15421
3162.88157,0.15339
3160.95298,0.15276
3159.02440,0.15208
3157.09581,0.15135
3155.16723,0.15075
3153.23864,0.15022
3151.31005,0.14964
3149.38147,0.14889
3147.45288,0.14810
3145.52429,0.14744
3143.59571,0.14694
3141.66712,0.14633
3139.73854,0.14567
3137.80995,0.14524
3135.88136,0.14480
3133.95278,0.14437
3132.02419,0.14382
3130.09560,0.14327
3128.16702,0.14280
3126.23843,0.14231
3124.30984,0.14204
3122.38126,0.14171
3120.45267,0.14111
3118.52409,0.14053
3116.59550,0.14024
3114.66691,0.14002
3112.73833,0.13974
3110.80974,0.13944
3108.88115,0.13908
3106.95257,0.13874
3105.02398,0.13845
3103.09540,0.13828
3101.16681,0.13798
3099.23822,0.13751
3097.30964,0.13719
3095.38105,0.13693
3093.45246,0.13667
3091.52388,0.13635
3089.59529,0.13612
3087.66670,0.13588
3085.73812,0.13554
3083.80953,0.13517
3081.88095,0.13473
3079.95236,0.13435
3078.02377,0.13396
3076.09519,0.13375
3074.16660,0.13357
3072.23801,0.13311
3070.30943,0.13267
3068.38084,0.13205
3066.45225,0.13139
3064.52367,0.13091
3062.59508,0.13044
3060.66650,0.13009
3058.73791,0.12957
3056.80932,0.12890
3054.88074,0.12831
3052.95215,0.12773
3051.02356,0.12719
3049.09498,0.12670
3047.16639,0.12614
3045.23781,0.12548
3043.30922,0.12493
3041.38063,0.12441
3039.45205,0.12394
3037.52346,0.12375
3035.59487,0.12363
3033.66629,0.12323
3031.73770,0.12257
3029.80911,0.12218
3027.88053,0.12208
3025.95194,0.12171
3024.02336,0.12127
3022.09477,0.12099
3020.16618,0.12077
3018.23760,0.12070
3016.30901,0.12057
3014.38042,0.12050
3012.45184,0.12066
3010.52325,0.12084
3008.59467,0.12104
3006.66608,0.12136
3004.73749,0.12182
3002.80891,0.12228
3000.88032,0.12275
2998.95173,0.12346
2997.02315,0.12432
2995.09456,0.12510
2993.16597,0.12587
2991.23739,0.12686
2989.30880,0.12814
2987.38022,0.12954
2985.45163,0.13098
2983.52304,0.13255
2981.59446,0.13429
2979.66587,0.13603
2977.73728,0.13795
2975.80870,0.14010
2973.88011,0.14199
2971.95153,0.14380
2970.02294,0.14593
2968.09435,0.14812
2966.16577,0.15025
2964.23718,0.15239
2962.30859,0.15452
2960.38001,0.15653
2958.45142,0.15853
2956.52283,0.16081
2954.59425,0.16313
2952.66566,0.16521
2950.73708,0.16727
2948.80849,0.16962
2946.87990,0.17225
2944.95132,0.17513
2943.02273,0.17870
2941.09414,0.18276
2939.16556,0.18694
2937.23697,0.19136
2935.30838,0.19563
2933.37980,0.19957
2931.45121,0.20332
2929.52263,0.20690
2927.59404,0.21006
2925.66545,0.21251
2923.73687,0.21441
2921.80828,0.21555
2919.87969,0.21554
2917.95111,0.21304
2916.02252,0.20647
2914.09394,0.19745
2912.16535,0.18899
2910.23676,0.18230
2908.30818,0.17702
2906.37959,0.17264
2904.45100,0.16888
2902.52242,0.16570
2900.59383,0.16300
2898.66524,0.16018
2896.73666,0.15748
2894.80807,0.15516
2892.87949,0.15285
2890.95090,0.15052
2889.02231,0.14814
2887.09373,0.14596
2885.16514,0.14406
2883.23655,0.14236
2881.30797,0.14119
2879.37938,0.14042
2877.45080,0.13993
2875.52221,0.13981
2873.59362,0.13993
2871.66504,0.14024
2869.73645,0.14062
2867.80786,0.14102
2865.87928,0.14199
2863.95069,0.14401
2862.02210,0.14721
2860.09352,0.15172
2858.16493,0.15738
2856.23635,0.16299
2854.30776,0.16679
2852.37917,0.16783
2850.45059,0.16542
2848.52200,0.15891
2846.59341,0.14927
2844.66483,0.13912
2842.73624,0.13031
2840.80766,0.12291
2838.87907,0.11676
2836.95048,0.11174
2835.02190,0.10760
2833.09331,0.10424
2831.16472,0.10134
2829.23614,0.09883
2827.30755,0.09665
2825.37896,0.09472
2823.45038,0.09309
2821.52179,0.09148
2819.59321,0.08987
2817.66462,0.08848
2815.73603,0.08730
2813.80745,0.08609
2811.87886,0.08495
2809.95027,0.08411
2808.02169,0.08323
2806.09310,0.08225
2804.16451,0.08126
2802.23593,0.08032
2800.30734,0.07958
2798.37876,0.07895
2796.45017,0.07829
2794.52158,0.07756
2792.59300,0.07678
2790.66441,0.07604
2788.73582,0.07546
2786.80724,0.07487
2784.87865,0.07415
2782.95007,0.07354
2781.02148,0.07309
2779.09289,0.07261
2777.16431,0.07203
2775.23572,0.07148
2773.30713,0.07097
2771.37855,0.07049
2769.44996,0.07005
2767.52137,0.06964
2765.59279,0.06935
2763.66420,0.06896
2761.73562,0.06848
2759.80703,0.06815
2757.87844,0.06793
2755.94986,0.06762
2754.02127,0.06716
2752.09268,0.06661
2750.16410,0.06617
2748.23551,0.06598
2746.30693,0.06580
2744.37834,0.06544
2742.44975,0.06509
2740.52117,0.06485
2738.59258,0.06456
2736.66399,0.06421
2734.73541,0.06393
2732.80682,0.06360
2730.87823,0.06326
2728.94965,0.06297
2727.02106,0.06262
2725.09248,0.06230
2723.16389,0.06186
2721.23530,0.06139
2719.30672,0.06109
2717.37813,0.06071
2715.44954,0.06020
2713.52096,0.05973
2711.59237,0.05938
2709.66379,0.05901
2707.73520,0.05859
2705.80661,0.05817
2703.87803,0.05782
2701.94944,0.05751
2700.02085,0.05717
2698.09227,0.05692
2696.16368,0.05664
2694.23509,0.05630
2692.30651,0.05596
2690.37792,0.05565
2688.44934,0.05549
2686.52075,0.05532
2684.59216,0.05499
2682.66358,0.05466
2680.73499,0.05439
2678.80640,0.05410
2676.87782,0.05380
2674.94923,0.05346
2673.02064,0.05304
2671.09206,0.05268
2669.16347,0.05238
2667.23489,0.05212
2665.30630,0.05183
2663.37771,0.05147
2661.44913,0.05120
2659.52054,0.05089
2657.59195,0.05055
2655.66337,0.05031
2653.73478,0.05008
2651.80620,0.04978
2649.87761,0.04941
2647.94902,0.04912
2646.02044,0.04889
2644.09185,0.04856
2642.16326,0.04826
2640.23468,0.04816
2638.30609,0.04797
2636.37750,0.04751
2634.44892,0.04705
2632.52033,0.04678
2630.59175,0.04655
2628.66316,0.04629
2626.73457,0.04610
2624.80599,0.04591
2622.87740,0.04554
2620.94881,0.04512
2619.02023,0.04486
2617.09164,0.04463
2615.16306,0.04427
2613.23447,0.04391
2611.30588,0.04361
2609.37730,0.04336
2607.44871,0.04317
2605.52012,0.04289
2603.59154,0.04255
2601.66295,0.04226
2599.73436,0.04195
2597.80578,0.04159
2595.87719,0.04121
2593.94861,0.04092
2592.02002,0.04071
2590.09143,0.04043
2588.16285,0.04014
2586.23426,0.03993
2584.30567,0.03967
2582.37709,0.03934
2580.44850,0.03902
2578.51991,0.03883
2576.59133,0.03867
2574.66274,0.03835
2572.73416,0.03804
2570.80557,0.03782
2568.87698,0.03756
2566.94840,0.03735
2565.01981,0.03711
2563.09122,0.03685
2561.16264,0.03661
2559.23405,0.03628
2557.30547,0.03596
2555.37688,0.03574
2553.44829,0.03556
2551.51971,0.03538
2549.59112,0.03523
2547.66253,0.03507
2545.73395,0.03482
2543.80536,0.03452
2541.87677,0.03419
2539.94819,0.03394
2538.01960,0.03375
2536.09102,0.03350
2534.16243,0.03325
2532.23384,0.03309
2530.30526,0.03299
2528.37667,0.03284
2526.44808,0.03257
2524.51950,0.03230
2522.59091,0.03202
2520.66233,0.03179
2518.73374,0.03166
2516.80515,0.03141
2514.87657,0.03108
2512.94798,0.03084
2511.01939,0.03056
2509.09081,0.03031
2507.16222,0.03006
2505.23363,0.02973
2503.30505,0.02951
2501.37646,0.02933
2499.44788,0.02900
2497.51929,0.02858
2495.59070,0.02827
2493.66212,0.02812
2491.73353,0.02793
2489.80494,0.02768
2487.87636,0.02743
2485.94777,0.02718
2484.01919,0.02687
2482.09060,0.02655
2480.16201,0.02635
2478.23343,0.02611
2476.30484,0.02584
2474.37625,0.02560
2472.44767,0.02527
2470.51908,0.02494
2468.59049,0.02466
2466.66191,0.02441
2464.73332,0.02418
2462.80474,0.02395
2460.87615,0.02374
2458.94756,0.02343
2457.01898,0.02302
2455.09039,0.02266
2453.16180,0.02232
2451.23322,0.02212
2449.30463,0.02199
2447.37604,0.02175
2445.44746,0.02149
2443.51887,0.02125
2441.59029,0.02099
2439.66170,0.02073
2437.73311,0.02045
2435.80453,0.02018
2433.87594,0.01986
2431.94735,0.01944
2430.01877,0.01906
2428.09018,0.01883
2426.16160,0.01867
2424.23301,0.01854
2422.30442,0.01836
2420.37584,0.01809
2418.44725,0.01777
2416.51866,0.01751
2414.59008,0.01729
2412.66149,0.01699
2410.73290,0.01665
2408.80432,0.01639
2406.87573,0.01618
2404.94715,0.01596
2403.01856,0.01574
2401.08997,0.01555
2399.16139,0.01537
2397.23280,0.01522
2395.30421,0.01490
2393.37563,0.01442
2391.44704,0.01411
2389.51846,0.01397
2387.58987,0.01388
2385.66128,0.01377
2383.73270,0.01361
2381.80411,0.01335
2379.87552,0.01311
2377.94694,0.01297
2376.01835,0.01282
2374.08976,0.01265
2372.16118,0.01252
2370.23259,0.01231
2368.30401,0.01207
2366.37542,0.01190
2364.44683,0.01173
2362.51825,0.01154
2360.58966,0.01130
2358.66107,0.01107
2356.73249,0.01084
2354.80390,0.01051
2352.87532,0.01021
2350.94673,0.01006
2349.01814,0.01014
2347.08956,0.01035
2345.16097,0.01029
2343.23238,0.01013
2341.30380,0.01007
2339.37521,0.00997
2337.44662,0.00970
2335.51804,0.00934
2333.58945,0.00922
2331.66087,0.00907
2329.73228,0.00875
2327.80369,0.00863
2325.87511,0.00845
2323.94652,0.00817
2322.01793,0.00808
2320.08935,0.00807
2318.16076,0.00796
2316.23217,0.00771
2314.30359,0.00744
2312.37500,0.00729
2310.44642,0.00712
2308.51783,0.00688
2306.58924,0.00677
2304.66066,0.00669
2302.73207,0.00657
2300.80348,0.00644
2298.87490,0.00631
2296.94631,0.00633
2295.01773,0.00630
2293.08914,0.00609
2291.16055,0.00584
2289.23197,0.00567
2287.30338,0.00555
2285.37479,0.00547
2283.44621,0.00537
2281.51762,0.00519
2279.58903,0.00498
2277.66045,0.00480
2275.73186,0.00470
2273.80328,0.00472
2271.87469,0.00461
2269.94610,0.00441
2268.01752,0.00436
2266.08893,0.00432
2264.16034,0.00413
2262.23176,0.00395
2260.30317,0.00382
2258.37459,0.00376
2256.44600,0.00369
2254.51741,0.00354
2252.58883,0.00341
2250.66024,0.00331
2248.73165,0.00320
2246.80307,0.00311
2244.87448,0.00305
2242.94589,0.00292
2241.01731,0.00281
2239.08872,0.00278
2237.16014,0.00269
2235.23155,0.00264
2233.30296,0.00261
2231.37438,0.00246
2229.44579,0.00227
2227.51720,0.00213
2225.58862,0.00206
2223.66003,0.00197
2221.73145,0.00177
2219.80286,0.00162
2217.87427,0.00157
2215.94569,0.00163
2214.01710,0.00162
2212.08851,0.00143
2210.15993,0.00130
2208.23134,0.00132
2206.30275,0.00124
2204.37417,0.00109
2202.44558,0.00100
2200.51700,0.00091
2198.58841,0.00077
2196.65982,0.00067
2194.73124,0.00070
2192.80265,0.00079
2190.87406,0.00083
2188.94548,0.00071
2187.01689,0.00063
2185.08830,0.00071
2183.15972,0.00070
2181.23113,0.00056
2179.30255,0.00049
2177.37396,0.00049
2175.44537,0.00053
2173.51679,0.00053
2171.58820,0.00028
2169.65961,0.00012
2167.73103,0.00030
2165.80244,0.00051
2163.87386,0.00065
2161.94527,0.00067
2160.01668,0.00058
2158.08810,0.00054
2156.15951,0.00055
2154.23092,0.00056
2152.30234,0.00051
2150.37375,0.00058
2148.44516,0.00073
2146.51658,0.00072
2144.58799,0.00069
2142.65941,0.00058
2140.73082,0.00046
2138.80223,0.00047
2136.87365,0.00045
2134.94506,0.00040
2133.01647,0.00036
2131.08789,0.00043
2129.15930,0.00048
2127.23072,0.00044
2125.30213,0.00040
2123.37354,0.00034
2121.44496,0.00030
2119.51637,0.00031
2117.58778,0.00040
2115.65920,0.00043
2113.73061,0.00034
2111.80202,0.00031
2109.87344,0.00025
2107.94485,0.00020
2106.01627,0.00021
2104.08768,0.00023
2102.15909,0.00022
2100.23051,0.00018
2098.30192,0.00023
2096.37333,0.00033
2094.44475,0.00032
2092.51616,0.00026
2090.58758,0.00016
2088.65899,0.00005
2086.73040,0.00009
2084.80182,0.00018
2082.87323,0.00012
2080.94464,0.00000
2079.01606,0.00000
2077.08747,0.00013
2075.15888,0.00014
2073.23030,0.00008
2071.30171,0.00007
2069.37313,0.00002
2067.44454,0.00004
2065.51595,0.00005
2063.58737,0.00002
2061.65878,0.00005
2059.73019,0.00006
2057.80161,0.00013
2055.87302,0.00017
2053.94443,0.00006
2052.01585,0.00009
2050.08726,0.00033
2048.15868,0.00048
2046.23009,0.00043
2044.30150,0.00049
2042.37292,0.00066
2040.44433,0.00078
2038.51574,0.00099
2036.58716,0.00124
2034.65857,0.00138
2032.72999,0.00150
2030.80140,0.00166
2028.87281,0.00171
2026.94423,0.00168
2025.01564,0.00178
2023.08705,0.00184
2021.15847,0.00180
2019.22988,0.00185
2017.30129,0.00190
2015.37271,0.00182
2013.44412,0.00185
2011.51554,0.00204
2009.58695,0.00233
2007.65836,0.00253
2005.72978,0.00253
2003.80119,0.00258
2001.87260,0.00271
1999.94402,0.00276
1998.01543,0.00275
1996.08685,0.00283
1994.15826,0.00292
1992.22967,0.00262
1990.30109,0.00232
1988.37250,0.00232
1986.44391,0.00231
1984.51533,0.00230
1982.58674,0.00229
1980.65815,0.00221
1978.72957,0.00213
1976.80098,0.00206
1974.87240,0.00196
1972.94381,0.00184
1971.01522,0.00180
1969.08664,0.00180
1967.15805,0.00148
1965.22946,0.00105
1963.30088,0.00097
1961.37229,0.00090
1959.44371,0.00073
1957.51512,0.00059
1955.58653,0.00048
1953.65795,0.00049
1951.72936,0.00045
1949.80077,0.00050
1947.87219,0.00049
1945.94360,0.00043
1944.01501,0.00056
1942.08643,0.00026
1940.15784,0.00000
1938.22926,0.00016
1936.30067,0.00023
1934.37208,0.00022
1932.44350,0.00002
1930.51491,-0.00004
1928.58632,-0.00002
1926.65774,-0.00007
1924.72915,0.00011
1922.80056,0.00000
1920.87198,0.00013
1918.94339,0.00042
1917.01481,0.00002
1915.08622,0.00032
1913.15763,0.00109
1911.22905,0.00158
1909.30046,0.00214
1907.37187,0.00258
1905.44329,0.00313
1903.51470,0.00374
1901.58612,0.00423
1899.65753,0.00464
1897.72894,0.00509
1895.80036,0.00567
1893.87177,0.00610
1891.94318,0.00688
1890.01460,0.00724
1888.08601,0.00701
1886.15742,0.00749
1884.22884,0.00788
1882.30025,0.00812
1880.37167,0.00837
1878.44308,0.00842
1876.51449,0.00854
1874.58591,0.00850
1872.65732,0.00891
1870.72873,0.00927
1868.80015,0.00848
1866.87156,0.00757
1864.94298,0.00768
1863.01439,0.00764
1861.08580,0.00704
1859.15722,0.00655
1857.22863,0.00567
1855.30004,0.00491
1853.37146,0.00411
1851.44287,0.00345
1849.51428,0.00295
1847.58570,0.00258
1845.65711,0.00259
1843.72853,0.00085
1841.79994,0.00000
1839.87135,0.00065
1837.94277,0.00048
1836.01418,0.00028
1834.08559,0.00015
1832.15701,0.00076
1830.22842,0.00044
1828.29984,-0.00032
1826.37125,0.00041
1824.44266,0.00021
1822.51408,0.00037
1820.58549,0.00125
1818.65690,0.00174
1816.72832,0.00230
1814.79973,0.00291
1812.87114,0.00379
1810.94256,0.00429
1809.01397,0.00498
1807.08539,0.00613
1805.15680,0.00740
1803.22821,0.00882
1801.29963,0.00976
1799.37104,0.01071
1797.44245,0.01227
1795.51387,0.01452
1793.58528,0.01652
1791.65669,0.01717
1789.72811,0.01860
1787.79952,0.02150
1785.87094,0.02364
1783.94235,0.02528
1782.01376,0.02742
1780.08518,0.02925
1778.15659,0.03116
1776.22800,0.03359
1774.29942,0.03615
1772.37083,0.03687
1770.44225,0.03736
1768.51366,0.03976
1766.58507,0.04126
1764.65649,0.04369
1762.72790,0.04601
1760.79931,0.04668
1758.87073,0.04929
1756.94214,0.05149
1755.01355,0.05372
1753.08497,0.05737
1751.15638,0.05973
1749.22780,0.06164
1747.29921,0.06492
1745.37062,0.06895
1743.44204,0.07296
1741.51345,0.07715
1739.58486,0.08042
1737.65628,0.08417
1735.72769,0.08924
1733.79911,0.08999
1731.87052,0.09085
1729.94193,0.09523
1728.01335,0.09812
1726.08476,0.10132
1724.15617,0.10427
1722.22759,0.10731
1720.29900,0.11185
1718.37041,0.11459
1716.44183,0.11565
1714.51324,0.11780
1712.58466,0.12130
1710.65607,0.12458
1708.72748,0.12739
1706.79890,0.13006
1704.87031,0.13147
1702.94172,0.13528
1701.01314,0.13822
1699.08455,0.13754
1697.15596,0.14124
1695.22738,0.14305
1693.29879,0.14474
1691.37021,0.14947
1689.44162,0.15153
1687.51303,0.15499
1685.58445,0.15851
1683.65586,0.15696
1681.72727,0.15905
1679.79869,0.16303
1677.87010,0.16676
1675.94152,0.16905
1674.01293,0.16962
1672.08434,0.17243
1670.15576,0.17437
1668.22717,0.17438
1666.29858,0.17651
1664.37000,0.17921
1662.44141,0.17947
1660.51282,0.17982
1658.58424,0.18115
1656.65565,0.18305
1654.72707,0.18557
1652.79848,0.18044
1650.86989,0.17778
1648.94131,0.18168
1647.01272,0.18148
1645.08413,0.17914
1643.15555,0.17985
1641.22696,0.18094
1639.29838,0.18171
1637.36979,0.18264
1635.44120,0.18039
1633.51262,0.17829
1631.58403,0.18007
1629.65544,0.18031
1627.72686,0.17883
1625.79827,0.17771
1623.86968,0.17596
1621.94110,0.17302
1620.01251,0.17240
1618.08393,0.17266
1616.15534,0.16868
1614.22675,0.16671
1612.29817,0.16695
1610.36958,0.16614
1608.44099,0.16532
1606.51241,0.16426
1604.58382,0.16312
1602.65524,0.16131
1600.72665,0.15982
1598.79806,0.15861
1596.86948,0.15725
1594.94089,0.15574
1593.01230,0.15397
1591.08372,0.15250
1589.15513,0.15073
1587.22654,0.14910
1585.29796,0.14710
1583.36937,0.14509
1581.44079,0.14319
1579.51220,0.14208
1577.58361,0.14130
1575.65503,0.13695
1573.72644,0.13480
1571.79785,0.13587
1569.86927,0.13426
1567.94068,0.13216
1566.01209,0.13247
1564.08351,0.13236
1562.15492,0.13380
1560.22634,0.13500
1558.29775,0.12930
1556.36916,0.12909
1554.44058,0.13125
1552.51199,0.13129
1550.58340,0.13202
1548.65482,0.13168
1546.72623,0.13235
1544.79765,0.13247
1542.86906,0.13187
1540.94047,0.13167
1539.01189,0.12713
1537.08330,0.12721
1535.15471,0.12913
1533.22613,0.12759
1531.29754,0.12608
1529.36895,0.12633
1527.44037,0.12600
1525.51178,0.12459
1523.58320,0.12498
1521.65461,0.12403
1519.72602,0.12269
1517.79744,0.12396
1515.86885,0.12371
1513.94026,0.12334
1512.01168,0.12241
1510.08309,0.12084
1508.15451,0.11939
1506.22592,0.11250
1504.29733,0.10756
1502.36875,0.10687
1500.44016,0.10461
1498.51157,0.10127
1496.58299,0.09666
1494.65440,0.09268
1492.72581,0.09169
1490.79723,0.08975
1488.86864,0.08637
1486.94006,0.08460
1485.01147,0.08413
1483.08288,0.08442
1481.15430,0.08480
1479.22571,0.08593
1477.29712,0.08805
1475.36854,0.09061
1473.43995,0.09378
1471.51137,0.09742
1469.58278,0.10311
1467.65419,0.10920
1465.72561,0.11198
1463.79702,0.11254
1461.86843,0.11369
1459.93985,0.11581
1458.01126,0.11648
1456.08267,0.11418
1454.15409,0.11475
1452.22550,0.11611
1450.29692,0.11629
1448.36833,0.11600
1446.43974,0.11491
1444.51116,0.11470
1442.58257,0.11445
1440.65398,0.11440
1438.72540,0.11538
1436.79681,0.11417
1434.86822,0.11278
1432.93964,0.11387
1431.01105,0.11449
1429.08247,0.11411
1427.15388,0.11440
1425.22529,0.11485
1423.29671,0.11491
1421.36812,0.11567
1419.43953,0.11504
1417.51095,0.11307
1415.58236,0.11343
1413.65378,0.11376
1411.72519,0.11326
1409.79660,0.11247
1407.86802,0.11174
1405.93943,0.11115
1404.01084,0.10960
1402.08226,0.10898
1400.15367,0.10833
1398.22508,0.10680
1396.29650,0.10605
1394.36791,0.10477
1392.43933,0.10378
1390.51074,0.10398
1388.58215,0.10348
1386.65357,0.10128
1384.72498,0.09987
1382.79639,0.10093
1380.86781,0.10296
1378.93922,0.10432
1377.01064,0.10471
1375.08205,0.10425
1373.15346,0.10300
1371.22488,0.10225
1369.29629,0.10163
1367.36770,0.10023
1365.43912,0.09915
1363.51053,0.09763
1361.58194,0.09591
1359.65336,0.09505
1357.72477,0.09438
1355.79619,0.09374
1353.86760,0.09312
1351.93901,0.09257
1350.01043,0.09209
1348.08184,0.09168
1346.15325,0.09123
1344.22467,0.09085
1342.29608,0.09088
1340.36750,0.09064
1338.43891,0.08986
1336.51032,0.08932
1334.58174,0.08931
1332.65315,0.08932
1330.72456,0.08935
1328.79598,0.08922
1326.86739,0.08877
1324.93880,0.08847
1323.01022,0.08828
1321.08163,0.08831
1319.15305,0.08824
1317.22446,0.08788
1315.29587,0.08766
1313.36729,0.08732
1311.43870,0.08692
1309.51011,0.08671
1307.58153,0.08666
1305.65294,0.08648
1303.72435,0.08637
1301.79577,0.08657
1299.86718,0.08676
1297.93860,0.08707
1296.01001,0.08749
1294.08142,0.08808
1292.15284,0.08895
1290.22425,0.08984
1288.29566,0.09085
1286.36708,0.09202
1284.43849,0.09340
1282.50991,0.09492
1280.58132,0.09642
1278.65273,0.09794
1276.72415,0.09951
1274.79556,0.10114
1272.86697,0.10282
1270.93839,0.10463
1269.00980,0.10658
1267.08121,0.10874
1265.15263,0.11099
1263.22404,0.11349
1261.29546,0.11648
1259.36687,0.11958
1257.43828,0.12305
1255.50970,0.12702
1253.58111,0.13109
1251.65252,0.13538
1249.72394,0.13995
1247.79535,0.14459
1245.86677,0.14890
1243.93818,0.15288
1242.00959,0.15664
1240.08101,0.16011
1238.15242,0.16346
1236.22383,0.16655
1234.29525,0.16941
1232.36666,0.17203
1230.43807,0.17432
1228.50949,0.17646
1226.58090,0.17856
1224.65232,0.18062
1222.72373,0.18234
1220.79514,0.18389
1218.86656,0.18572
1216.93797,0.18788
1215.00938,0.19010
1213.08080,0.19213
1211.15221,0.19414
1209.22363,0.19593
1207.29504,0.19739
1205.36645,0.19906
1203.43787,0.20083
1201.50928,0.20230
1199.58069,0.20339
1197.65211,0.20429
1195.72352,0.20554
1193.79493,0.20705
1191.86635,0.20857
1189.93776,0.21022
1188.00918,0.21161
1186.08059,0.21270
1184.15200,0.21402
1182.22342,0.21561
1180.29483,0.21762
1178.36624,0.22016
1176.43766,0.22286
1174.50907,0.22544
1172.58048,0.22812
1170.65190,0.23100
1168.72331,0.23355
1166.79473,0.23605
1164.86614,0.23881
1162.93755,0.24140
1161.00897,0.24350
1159.08038,0.24468
1157.15179,0.24550
1155.22321,0.24649
1153.29462,0.24758
1151.36604,0.24911
1149.43745,0.25083
1147.50886,0.25264
1145.58028,0.25455
1143.65169,0.25674
1141.72310,0.25933
1139.79452,0.26214
1137.86593,0.26554
1135.93734,0.26912
1134.00876,0.27273
1132.08017,0.27635
1130.15159,0.27965
1128.22300,0.28374
1126.29441,0.28845
1124.36583,0.29295
1122.43724,0.29796
1120.50865,0.30340
1118.58007,0.30901
1116.65148,0.31463
1114.72290,0.31991
1112.79431,0.32558
1110.86572,0.33149
1108.93714,0.33683
1107.00855,0.34178
1105.07996,0.34622
1103.15138,0.34955
1101.22279,0.35155
1099.29420,0.35302
1097.36562,0.35433
1095.43703,0.35482
1093.50845,0.35449
1091.57986,0.35396
1089.65127,0.35336
1087.72269,0.35170
1085.79410,0.34977
1083.86551,0.34840
1081.93693,0.34641
1080.00834,0.34390
1078.07976,0.34189
1076.15117,0.34038
1074.22258,0.33853
1072.29400,0.33667
1070.36541,0.33530
1068.43682,0.33378
1066.50824,0.33210
1064.57965,0.33101
1062.65106,0.33032
1060.72248,0.32871
1058.79389,0.32636
1056.86531,0.32414
1054.93672,0.32199
1053.00813,0.31992
1051.07955,0.31816
1049.15096,0.31695
1047.22237,0.31623
1045.29379,0.31608
1043.36520,0.31666
1041.43661,0.31744
1039.50803,0.31773
1037.57944,0.31783
1035.65086,0.31813
1033.72227,0.31781
1031.79368,0.31657
1029.86510,0.31436
1027.93651,0.31147
1026.00792,0.30859
1024.07934,0.30524
1022.15075,0.30151
1020.22217,0.29831
1018.29358,0.29544
1016.36499,0.29213
1014.43641,0.28867
1012.50782,0.28560
1010.57923,0.28245
1008.65065,0.27894
1006.72206,0.27494
1004.79347,0.27064
1002.86489,0.26637
1000.93630,0.26192
999.00772,0.25727
997.07913,0.25233
995.15054,0.24728
993.22196,0.24214
991.29337,0.23651
989.36478,0.23086
987.43620,0.22537
985.50761,0.21944
983.57903,0.21283
981.65044,0.20555
979.72185,0.19776
977.79327,0.18991
975.86468,0.18205
973.93609,0.17410
972.00751,0.16614
970.07892,0.15810
968.15033,0.15061
966.22175,0.14388
964.29316,0.13721
962.36458,0.13118
960.43599,0.12622
958.50740,0.12161
956.57882,0.11715
954.65023,0.11321
952.72164,0.10993
950.79306,0.10712
948.86447,0.10472
946.93589,0.10270
945.00730,0.10117
943.07871,0.09973
941.15013,0.09813
939.22154,0.09699
937.29295,0.09586
935.36437,0.09461
933.43578,0.09354
931.50719,0.09252
929.57861,0.09186
927.65002,0.09109
925.72144,0.08996
923.79285,0.08911
921.86426,0.08863
919.93568,0.08824
918.00709,0.08784
916.07850,0.08736
914.14992,0.08667
912.22133,0.08515
910.29274,0.08234
908.36416,0.07894
906.43557,0.07484
904.50699,0.07005
902.57840,0.06523
900.64981,0.06005
898.72123,0.05530
896.79264,0.05122
894.86405,0.04729
892.93547,0.04390
891.00688,0.04056
889.07830,0.03711
887.14971,0.03408
885.22112,0.03150
883.29254,0.02908
881.36395,0.02645
879.43536,0.02371
877.50678,0.02119
875.57819,0.01899
873.64960,0.01647
871.72102,0.01368
869.79243,0.01131
867.86385,0.00901
865.93526,0.00680
864.00667,0.00499
862.07809,0.00338
860.14950,0.00195
858.22091,0.00078
856.29233,0.00000
854.36374,-0.00002
852.43516,0.00041
850.50657,0.00061
848.57798,0.00083
846.64940,0.00176
844.72081,0.00355
842.79222,0.00563
840.86364,0.00809
838.93505,0.01087
837.00646,0.01377
835.07788,0.01692
833.14929,0.01962
831.22071,0.02173
829.29212,0.02364
827.36353,0.02541
825.43495,0.02646
823.50636,0.02677
821.57777,0.02745
819.64919,0.02843
817.72060,0.02971
815.79201,0.03178
813.86343,0.03411
811.93484,0.03669
810.00626,0.04016
808.07767,0.04554
806.14908,0.05223
804.22050,0.05812
802.29191,0.06251
800.36332,0.06481
798.43474,0.06416
796.50615,0.06119
794.57757,0.05691
792.64898,0.05251
790.72039,0.04927
788.79181,0.04693
786.86322,0.04563
784.93463,0.04583
783.00605,0.04641
781.07746,0.04648
779.14887,0.04541
777.22029,0.04191
775.29170,0.03671
773.36312,0.03155
771.43453,0.02687
769.50594,0.02321
767.57736,0.02094
765.64877,0.01959
763.72018,0.01887
761.79160,0.01850
759.86301,0.01824
757.93443,0.01799
756.00584,0.01780
754.07725,0.01786
752.14867,0.01779
750.22008,0.01717
748.29149,0.01611
746.36291,0.01467
744.43432,0.01281
742.50573,0.01065
740.57715,0.00846
738.64856,0.00687
736.71998,0.00548
734.79139,0.00370
732.86280,0.00277
730.93422,0.00288
729.00563,0.00297
727.07704,0.00299
725.14846,0.00297
723.21987,0.00306
721.29129,0.00336
719.36270,0.00279
717.43411,0.00126
715.50553,0.00053
713.57694,0.00054
711.64835,0.00072
709.71977,0.00113
707.79118,0.00161
705.86259,0.00318
703.93401,0.00571
702.00542,0.00829
700.07684,0.01185
698.14825,0.01684
696.21966,0.02071
694.29108,0.02042
692.36249,0.01701
690.43390,0.01296
688.50532,0.00945
686.57673,0.00731
684.64814,0.00643
682.71956,0.00592
680.79097,0.00520
678.86239,0.00414
676.93380,0.00303
675.00521,0.00254
673.07663,0.00225
671.14804,0.00185
669.21945,0.00152
667.29087,0.00070
665.36228,0.00000
663.43370,-0.00009
661.50511,0.00002
659.57652,-0.00007
657.64794,0.00000
655.71935,0.00034
653.79076,0.00056
651.86218,0.00140
649.93359,0.00244
648.00500,0.00286
646.07642,0.00290
644.14783,0.00299
642.21925,0.00360
640.29066,0.00444
638.36207,0.00507
636.43349,0.00558
634.50490,0.00618
632.57631,0.00668
630.64773,0.00737
628.71914,0.00802
626.79056,0.00796
624.86197,0.00828
622.93338,0.00903
621.00480,0.00987
619.07621,0.01112
617.14762,0.01213
615.21904,0.01252
613.29045,0.01267
611.36186,0.01353
609.43328,0.01519
607.50469,0.01701
605.57611,0.01784
603.64752,0.01806
601.71893,0.01930
599.79035,0.02082
597.86176,0.02273
595.93317,0.02518
594.00459,0.02779
592.07600,0.03095
590.14742,0.03360
588.21883,0.03558
586.29024,0.03812
584.36166,0.04108
582.43307,0.04432
580.50448,0.04830
578.57590,0.05170
576.64731,0.05446
574.71872,0.05814
572.79014,0.06263
570.86155,0.06786
568.93297,0.07193
567.00438,0.07536
565.07579,0.08098
563.14721,0.08635
561.21862,0.08952
559.29003,0.09218
557.36145,0.09565
555.43286,0.09918
553.50427,0.10256
551.57569,0.10688
549.64710,0.11085
547.71852,0.11361
545.78993,0.11680
543.86134,0.12193
541.93276,0.12810
540.00417,0.13296
538.07558,0.13707
536.14700,0.14137
534.21841,0.14435
532.28983,0.14672
530.36124,0.14868
528.43265,0.14828
526.50407,0.14696
524.57548,0.14574
522.64689,0.14378
520.71831,0.14084
518.78972,0.13716
516.86113,0.13366
514.93255,0.12988
513.00396,0.12512
511.07538,0.12104
509.14679,0.11856
507.21820,0.11732
505.28962,0.11700
503.36103,0.11626
501.43244,0.11664
499.50386,0.12008
497.57527,0.12537
495.64669,0.13107
493.71810,0.13729
491.78951,0.14645
489.86093,0.15665
487.93234,0.16725
486.00375,0.17981
484.07517,0.19154
482.14658,0.20417
480.21799,0.21467
478.28941,0.21974
476.36082,0.22508
474.43224,0.22820
472.50365,0.22609
470.57506,0.22180
468.64648,0.21575
466.71789,0.20930
464.78930,0.20221
462.86072,0.19084
460.93213,0.17944
459.00355,0.16998
457.07496,0.15956
455.14637,0.14920
453.21779,0.13755
451.28920,0.12856
449.36061,0.12284
447.43203,0.11573
445.50344,0.10842
443.57485,0.10078
441.64627,0.09220
439.71768,0.08476
437.78910,0.07940
435.86051,0.07515
433.93192,0.07165
432.00334,0.06918
430.07475,0.06726
428.14616,0.06382
426.21758,0.05919
424.28899,0.05482
422.36040,0.05206
420.43182,0.04942
418.50323,0.04606
416.57465,0.04655
414.64606,0.03609
412.71747,0.02099
410.78889,0.01716
408.86030,0.00888
406.93171,0.00102
405.00313,0.00000
403.07454,0.00284
401.14596,0.00488
399.21737,0.00000
