3747.24323,0.00041
3745.31464,0.00231
3743.38605,0.00020
3741.45747,0.00000
3739.52888,0.00258
3737.60030,0.00381
3735.67171,0.00373
3733.74312,0.00343
3731.81454,0.00370
3729.88595,0.00423
3727.95736,0.00569
3726.02878,0.00687
3724.10019,0.00765
3722.17161,0.00922
3720.24302,0.01060
3718.31443,0.01284
3716.38585,0.01538
3714.45726,0.01869
3712.52867,0.02214
3710.60009,0.02417
3708.67150,0.02743
3706.74291,0.03111
3704.81433,0.03536
3702.88574,0.03953
3700.95716,0.04211
3699.02857,0.04438
3697.09998,0.04564
3695.17140,0.04639
3693.24281,0.04679
3691.31422,0.04772
3689.38564,0.04853
3687.45705,0.04868
3685.52846,0.05086
3683.59988,0.05414
3681.67129,0.05767
3679.74271,0.06126
3677.81412,0.06608
3675.88553,0.07059
3673.95695,0.07393
3672.02836,0.07999
3670.09977,0.08539
3668.17119,0.08959
3666.24260,0.09559
3664.31402,0.10130
3662.38543,0.10661
3660.45684,0.11164
3658.52826,0.11681
3656.59967,0.12148
3654.67108,0.12527
3652.74250,0.13033
3650.81391,0.13476
3648.88532,0.13730
3646.95674,0.14009
3645.02815,0.14403
3643.09957,0.14807
3641.17098,0.15135
3639.24239,0.15458
3637.31381,0.15807
3635.38522,0.16175
3633.45663,0.16521
3631.52805,0.16918
3629.59946,0.17254
3627.67088,0.17335
3625.74229,0.17489
3623.81370,0.17675
3621.88512,0.17752
3619.95653,0.17715
3618.02794,0.17471
3616.09936,0.17271
3614.17077,0.17100
3612.24218,0.16878
3610.31360,0.16707
3608.38501,0.16499
3606.45643,0.16291
3604.52784,0.16178
3602.59925,0.16073
3600.67067,0.15932
3598.74208,0.15814
3596.81349,0.15712
3594.88491,0.15603
3592.95632,0.15485
3591.02774,0.15420
3589.09915,0.15400
3587.17056,0.15303
3585.24198,0.15218
3583.31339,0.15229
3581.38480,0.15250
3579.45622,0.15262
3577.52763,0.15301
3575.59904,0.15363
3573.67046,0.15407
3571.74187,0.15456
3569.81329,0.15561
3567.88470,0.15628
3565.95611,0.15633
3564.02753,0.15701
3562.09894,0.15809
3560.17035,0.15896
3558.24177,0.15987
3556.31318,0.16068
3554.38459,0.16147
3552.45601,0.16231
3550.52742,0.16318
3548.59884,0.16429
3546.67025,0.16524
3544.74166,0.16582
3542.81308,0.16657
3540.88449,0.16770
3538.95590,0.16888
3537.02732,0.16974
3535.09873,0.17057
3533.17015,0.17162
3531.24156,0.17264
3529.31297,0.17360
3527.38439,0.17459
3525.45580,0.17545
3523.52721,0.17624
3521.59863,0.17716
3519.67004,0.17820
3517.74145,0.17928
3515.81287,0.18022
3513.88428,0.18106
3511.95570,0.18203
3510.02711,0.18307
3508.09852,0.18399
3506.16994,0.18504
3504.24135,0.18611
3502.31276,0.18690
3500.38418,0.18777
3498.45559,0.18878
3496.52701,0.18970
3494.59842,0.19057
3492.66983,0.19142
3490.74125,0.19239
3488.81266,0.19341
3486.88407,0.19451
3484.95549,0.19562
3483.02690,0.19657
3481.09831,0.19727
3479.16973,0.19793
3477.24114,0.19882
3475.31256,0.19959
3473.38397,0.20028
3471.45538,0.20107
3469.52680,0.20181
3467.59821,0.20266
3465.66962,0.20364
3463.74104,0.20439
3461.81245,0.20493
3459.88386,0.20571
3457.95528,0.20638
3456.02669,0.20698
3454.09811,0.20781
3452.16952,0.20855
3450.24093,0.20939
3448.31235,0.21026
3446.38376,0.21090
3444.45517,0.21150
3442.52659,0.21217
3440.59800,0.21274
3438.66942,0.21329
3436.74083,0.21402
3434.81224,0.21460
3432.88366,0.21510
3430.95507,0.21571
3429.02648,0.21635
3427.09790,0.21692
3425.16931,0.21748
3423.24072,0.21806
3421.31214,0.21838
3419.38355,0.21875
3417.45497,0.21934
3415.52638,0.21993
3413.59779,0.22018
3411.66921,0.22023
3409.74062,0.22072
3407.81203,0.22130
3405.88345,0.22168
3403.95486,0.22193
3402.02628,0.22231
3400.09769,0.22277
3398.16910,0.22283
3396.24052,0.22292
3394.31193,0.22322
3392.38334,0.22354
3390.45476,0.22382
3388.52617,0.22394
3386.59758,0.22410
3384.66900,0.22444
3382.74041,0.22474
3380.81183,0.22483
3378.88324,0.22487
3376.95465,0.22490
3375.02607,0.22498
3373.09748,0.22528
3371.16889,0.22551
3369.24031,0.22565
3367.31172,0.22585
3365.38314,0.22619
3363.45455,0.22643
3361.52596,0.22634
3359.59738,0.22637
3357.66879,0.22662
3355.74020,0.22688
3353.81162,0.22708
3351.88303,0.22704
3349.95444,0.22692
3348.02586,0.22702
3346.09727,0.22729
3344.16869,0.22750
3342.24010,0.22755
3340.31151,0.22742
3338.38293,0.22731
3336.45434,0.22724
3334.52575,0.22722
3332.59717,0.22730
3330.66858,0.22725
3328.73999,0.22727
3326.81141,0.22724
3324.88282,0.22706
3322.95424,0.22704
3321.02565,0.22692
3319.09706,0.22680
3317.16848,0.22676
3315.23989,0.22657
3313.31130,0.22640
3311.38272,0.22626
3309.45413,0.22621
3307.52555,0.22614
3305.59696,0.22593
3303.66837,0.22571
3301.73979,0.22553
3299.81120,0.22538
3297.88261,0.22502
3295.95403,0.22477
3294.02544,0.22477
3292.09685,0.22443
3290.16827,0.22383
3288.23968,0.22345
3286.31110,0.22317
3284.38251,0.22265
3282.45392,0.22197
3280.52534,0.22151
3278.59675,0.22109
3276.66816,0.22030
3274.73958,0.21947
3272.81099,0.21884
3270.88241,0.21809
3268.95382,0.21733
3267.02523,0.21663
3265.09665,0.21583
3263.16806,0.21483
3261.23947,0.21375
3259.31089,0.21277
3257.38230,0.21178
3255.45371,0.21082
3253.52513,0.20989
3251.59654,0.20899
3249.66796,0.20810
3247.73937,0.20712
3245.81078,0.20618
3243.88220,0.20529
3241.95361,0.20460
3240.02502,0.20385
3238.09644,0.20290
3236.16785,0.20201
3234.23927,0.20107
3232.31068,0.20028
3230.38209,0.19952
3228.45351,0.19860
3226.52492,0.19780
3224.59633,0.19708
3222.66775,0.19641
3220.73916,0.19573
3218.81057,0.19480
3216.88199,0.19380
3214.95340,0.19290
3213.02482,0.19202
3211.09623,0.19127
3209.16764,0.19054
3207.23906,0.18973
3205.31047,0.18896
3203.38188,0.18813
3201.45330,0.18728
3199.52471,0.18636
3197.59612,0.18538
3195.66754,0.18447
3193.73895,0.18355
3191.81037,0.18270
3189.88178,0.18188
3187.95319,0.18103
3186.02461,0.18012
3184.09602,0.17919
3182.16743,0.17828
3180.23885,0.17735
3178.31026,0.17658
3176.38168,0.17576
3174.45309,0.17479
3172.52450,0.17383
3170.59592,0.17289
3168.66733,0.17197
3166.73874,0.17116
3164.81016,0.17038
3162.88157,0.16949
3160.95298,0.16857
3159.02440,0.16766
3157.09581,0.16678
3155.16723,0.16601
3153.23864,0.16518
3151.31005,0.16436
3149.38147,0.16362
3147.45288,0.16289
3145.52429,0.16207
3143.59571,0.16125
3141.66712,0.16053
3139.73854,0.15990
3137.80995,0.15932
3135.88136,0.15856
3133.95278,0.15790
3132.02419,0.15740
3130.09560,0.15674
3128.16702,0.15611
3126.23843,0.15546
3124.30984,0.15483
3122.38126,0.15435
3120.45267,0.15386
3118.52409,0.15336
3116.59550,0.15279
3114.66691,0.15234
3112.73833,0.15192
3110.80974,0.15129
3108.88115,0.15070
3106.95257,0.15026
3105.02398,0.14988
3103.09540,0.14946
3101.16681,0.14913
3099.23822,0.14878
3097.30964,0.14824
3095.38105,0.14778
3093.45246,0.14735
3091.52388,0.14692
3089.59529,0.14651
3087.66670,0.14591
3085.73812,0.14543
3083.80953,0.14503
3081.88095,0.14446
3079.95236,0.14394
3078.02377,0.14353
3076.09519,0.14319
3074.16660,0.14273
3072.23801,0.14220
3070.30943,0.14169
3068.38084,0.14110
3066.45225,0.14046
3064.52367,0.13981
3062.59508,0.13917
3060.66650,0.13847
3058.73791,0.13771
3056.80932,0.13700
3054.88074,0.13633
3052.95215,0.13569
3051.02356,0.13493
3049.09498,0.13415
3047.16639,0.13347
3045.23781,0.13287
3043.30922,0.13230
3041.38063,0.13171
3039.45205,0.13118
3037.52346,0.13071
3035.59487,0.13022
3033.66629,0.12967
3031.73770,0.12904
3029.80911,0.12842
3027.88053,0.12793
3025.95194,0.12759
3024.02336,0.12722
3022.09477,0.12676
3020.16618,0.12640
3018.23760,0.12621
3016.30901,0.12608
3014.38042,0.12594
3012.45184,0.12592
3010.52325,0.12597
3008.59467,0.12604
3006.66608,0.12617
3004.73749,0.12648
3002.80891,0.12696
3000.88032,0.12742
2998.95173,0.12790
2997.02315,0.12850
2995.09456,0.12931
2993.16597,0.13025
2991.23739,0.13125
2989.30880,0.13237
2987.38022,0.13350
2985.45163,0.13486
2983.52304,0.13653
2981.59446,0.13830
2979.66587,0.14023
2977.73728,0.14219
2975.80870,0.14408
2973.88011,0.14599
2971.95153,0.14814
2970.02294,0.15041
2968.09435,0.15270
2966.16577,0.15511
2964.23718,0.15748
2962.30859,0.15986
2960.38001,0.16233
2958.45142,0.16470
2956.52283,0.16678
2954.59425,0.16872
2952.66566,0.17071
2950.73708,0.17264
2948.80849,0.17479
2946.87990,0.17764
2944.95132,0.18115
2943.02273,0.18522
2941.09414,0.18976
2939.16556,0.19471
2937.23697,0.19994
2935.30838,0.20524
2933.37980,0.21046
2931.45121,0.21543
2929.52263,0.21999
2927.59404,0.22394
2925.66545,0.22708
2923.73687,0.22912
2921.80828,0.22942
2919.87969,0.22772
2917.95111,0.22368
2916.02252,0.21634
2914.09394,0.20666
2912.16535,0.19710
2910.23676,0.18914
2908.30818,0.18299
2906.37959,0.17806
2904.45100,0.17395
2902.52242,0.17035
2900.59383,0.16711
2898.66524,0.16423
2896.73666,0.16138
2894.80807,0.15844
2892.87949,0.15561
2890.95090,0.15304
2889.02231,0.15058
2887.09373,0.14822
2885.16514,0.14614
2883.23655,0.14424
2881.30797,0.14275
2879.37938,0.14187
2877.45080,0.14140
2875.52221,0.14126
2873.59362,0.14140
2871.66504,0.14169
2869.73645,0.14198
2867.80786,0.14252
2865.87928,0.14374
2863.95069,0.14611
2862.02210,0.14975
2860.09352,0.15460
2858.16493,0.16050
2856.23635,0.16683
2854.30776,0.17226
2852.37917,0.17499
2850.45059,0.17302
2848.52200,0.16516
2846.59341,0.15335
2844.66483,0.14133
2842.73624,0.13096
2840.80766,0.12250
2838.87907,0.11580
2836.95048,0.11044
2835.02190,0.10615
2833.09331,0.10261
2831.16472,0.09964
2829.23614,0.09716
2827.30755,0.09499
2825.37896,0.09305
2823.45038,0.09133
2821.52179,0.08986
2819.59321,0.08852
2817.66462,0.08709
2815.73603,0.08564
2813.80745,0.08446
2811.87886,0.08343
2809.95027,0.08241
2808.02169,0.08141
2806.09310,0.08042
2804.16451,0.07956
2802.23593,0.07869
2800.30734,0.07773
2798.37876,0.07691
2796.45017,0.07618
2794.52158,0.07544
2792.59300,0.07471
2790.66441,0.07403
2788.73582,0.07333
2786.80724,0.07259
2784.87865,0.07187
2782.95007,0.07119
2781.02148,0.07061
2779.09289,0.07012
2777.16431,0.06959
2775.23572,0.06900
2773.30713,0.06845
2771.37855,0.06793
2769.44996,0.06744
2767.52137,0.06696
2765.59279,0.06654
2763.66420,0.06609
2761.73562,0.06558
2759.80703,0.06522
2757.87844,0.06488
2755.94986,0.06441
2754.02127,0.06399
2752.09268,0.06365
2750.16410,0.06335
2748.23551,0.06299
2746.30693,0.06262
2744.37834,0.06228
2742.44975,0.06193
2740.52117,0.06159
2738.59258,0.06125
2736.66399,0.06092
2734.73541,0.06054
2732.80682,0.06015
2730.87823,0.05982
2728.94965,0.05955
2727.02106,0.05919
2725.09248,0.05869
2723.16389,0.05822
2721.23530,0.05783
2719.30672,0.05747
2717.37813,0.05706
2715.44954,0.05660
2713.52096,0.05617
2711.59237,0.05572
2709.66379,0.05532
2707.73520,0.05493
2705.80661,0.05449
2703.87803,0.05411
2701.94944,0.05382
2700.02085,0.05352
2698.09227,0.05314
2696.16368,0.05278
2694.23509,0.05249
2692.30651,0.05229
2690.37792,0.05211
2688.44934,0.05177
2686.52075,0.05145
2684.59216,0.05125
2682.66358,0.05096
2680.73499,0.05062
2678.80640,0.05026
2676.87782,0.04985
2674.94923,0.04954
2673.02064,0.04929
2671.09206,0.04895
2669.16347,0.04858
2667.23489,0.04824
2665.30630,0.04792
2663.37771,0.04768
2661.44913,0.04741
2659.52054,0.04703
2657.59195,0.04672
2655.66337,0.04640
2653.73478,0.04606
2651.80620,0.04578
2649.87761,0.04549
2647.94902,0.04515
2646.02044,0.04482
2644.09185,0.04461
2642.16326,0.04445
2640.23468,0.04413
2638.30609,0.04381
2636.37750,0.04361
2634.44892,0.04328
2632.52033,0.04291
2630.59175,0.04260
2628.66316,0.04228
2626.73457,0.04201
2624.80599,0.04180
2622.87740,0.04149
2620.94881,0.04107
2619.02023,0.04067
2617.09164,0.04035
2615.16306,0.04007
2613.23447,0.03982
2611.30588,0.03955
2609.37730,0.03926
2607.44871,0.03899
2605.52012,0.03870
2603.59154,0.03838
2601.66295,0.03811
2599.73436,0.03782
2597.80578,0.03743
2595.87719,0.03710
2593.94861,0.03679
2592.02002,0.03646
2590.09143,0.03622
2588.16285,0.03594
2586.23426,0.03558
2584.30567,0.03525
2582.37709,0.03497
2580.44850,0.03475
2578.51991,0.03448
2576.59133,0.03423
2574.66274,0.03396
2572.73416,0.03358
2570.80557,0.03330
2568.87698,0.03312
2566.94840,0.03288
2565.01981,0.03260
2563.09122,0.03232
2561.16264,0.03207
2559.23405,0.03187
2557.30547,0.03163
2555.37688,0.03131
2553.44829,0.03103
2551.51971,0.03077
2549.59112,0.03051
2547.66253,0.03027
2545.73395,0.03004
2543.80536,0.02984
2541.87677,0.02970
2539.94819,0.02961
2538.01960,0.02940
2536.09102,0.02905
2534.16243,0.02872
2532.23384,0.02852
2530.30526,0.02835
2528.37667,0.02813
2526.44808,0.02791
2524.51950,0.02767
2522.59091,0.02745
2520.66233,0.02723
2518.73374,0.02697
2516.80515,0.02668
2514.87657,0.02642
2512.94798,0.02617
2511.01939,0.02582
2509.09081,0.02552
2507.16222,0.02528
2505.23363,0.02499
2503.30505,0.02481
2501.37646,0.02462
2499.44788,0.02436
2497.51929,0.02413
2495.59070,0.02385
2493.66212,0.02356
2491.73353,0.02324
2489.80494,0.02297
2487.87636,0.02276
2485.94777,0.02251
2484.01919,0.02220
2482.09060,0.02194
2480.16201,0.02170
2478.23343,0.02138
2476.30484,0.02114
2474.37625,0.02091
2472.44767,0.02057
2470.51908,0.02032
2468.59049,0.02013
2466.66191,0.01990
2464.73332,0.01966
2462.80474,0.01945
2460.87615,0.01917
2458.94756,0.01878
2457.01898,0.01849
2455.09039,0.01829
2453.16180,0.01801
2451.23322,0.01770
2449.30463,0.01741
2447.37604,0.01723
2445.44746,0.01709
2443.51887,0.01680
2441.59029,0.01649
2439.66170,0.01628
2437.73311,0.01609
2435.80453,0.01581
2433.87594,0.01551
2431.94735,0.01532
2430.01877,0.01511
2428.09018,0.01483
2426.16160,0.01455
2424.23301,0.01428
2422.30442,0.01406
2420.37584,0.01393
2418.44725,0.01377
2416.51866,0.01352
2414.59008,0.01325
2412.66149,0.01308
2410.73290,0.01284
2408.80432,0.01255
2406.87573,0.01240
2404.94715,0.01224
2403.01856,0.01196
2401.08997,0.01170
2399.16139,0.01157
2397.23280,0.01138
2395.30421,0.01111
2393.37563,0.01091
2391.44704,0.01071
2389.51846,0.01046
2387.58987,0.01026
2385.66128,0.01014
2383.73270,0.01005
2381.80411,0.00987
2379.87552,0.00963
2377.94694,0.00941
2376.01835,0.00927
2374.08976,0.00905
2372.16118,0.00872
2370.23259,0.00838
2368.30401,0.00803
2366.37542,0.00770
2364.44683,0.00730
2362.51825,0.00690
2360.58966,0.00666
2358.66107,0.00648
2356.73249,0.00632
2354.80390,0.00624
2352.87532,0.00623
2350.94673,0.00635
2349.01814,0.00675
2347.08956,0.00688
2345.16097,0.00656
2343.23238,0.00632
2341.30380,0.00613
2339.37521,0.00594
2337.44662,0.00567
2335.51804,0.00535
2333.58945,0.00516
2331.66087,0.00498
2329.73228,0.00479
2327.80369,0.00467
2325.87511,0.00468
2323.94652,0.00467
2322.01793,0.00456
2320.08935,0.00443
2318.16076,0.00430
2316.23217,0.00427
2314.30359,0.00426
2312.37500,0.00415
2310.44642,0.00401
2308.51783,0.00396
2306.58924,0.00393
2304.66066,0.00377
2302.73207,0.00372
2300.80348,0.00370
2298.87490,0.00355
2296.94631,0.00341
2295.01773,0.00333
2293.08914,0.00324
2291.16055,0.00308
2289.23197,0.00295
2287.30338,0.00283
2285.37479,0.00276
2283.44621,0.00274
2281.51762,0.00267
2279.58903,0.00258
2277.66045,0.00250
2275.73186,0.00240
2273.80328,0.00232
2271.87469,0.00224
2269.94610,0.00208
2268.01752,0.00194
2266.08893,0.00189
2264.16034,0.00184
2262.23176,0.00181
2260.30317,0.00177
2258.37459,0.00171
2256.44600,0.00163
2254.51741,0.00157
2252.58883,0.00148
2250.66024,0.00140
2248.73165,0.00143
2246.80307,0.00141
2244.87448,0.00131
2242.94589,0.00125
2241.01731,0.00120
2239.08872,0.00119
2237.16014,0.00112
2235.23155,0.00109
2233.30296,0.00103
2231.37438,0.00088
2229.44579,0.00077
2227.51720,0.00069
2225.58862,0.00065
2223.66003,0.00066
2221.73145,0.00070
2219.80286,0.00058
2217.87427,0.00042
2215.94569,0.00042
2214.01710,0.00040
2212.08851,0.00030
2210.15993,0.00025
2208.23134,0.00020
2206.30275,0.00012
2204.37417,0.00010
2202.44558,0.00015
2200.51700,0.00009
2198.58841,0.00008
2196.65982,0.00012
2194.73124,0.00011
2192.80265,0.00013
2190.87406,0.00012
2188.94548,0.00012
2187.01689,0.00011
2185.08830,0.00007
2183.15972,0.00006
2181.23113,0.00003
2179.30255,0.00000
2177.37396,0.00006
2175.44537,0.00014
2173.51679,0.00009
2171.58820,-0.00001
2169.65961,-0.00009
2167.73103,-0.00001
2165.80244,0.00012
2163.87386,0.00016
2161.94527,0.00016
2160.01668,0.00016
2158.08810,0.00019
2156.15951,0.00026
2154.23092,0.00028
2152.30234,0.00022
2150.37375,0.00022
2148.44516,0.00026
2146.51658,0.00026
2144.58799,0.00025
2142.65941,0.00028
2140.73082,0.00035
2138.80223,0.00033
2136.87365,0.00031
2134.94506,0.00035
2133.01647,0.00029
2131.08789,0.00013
2129.15930,0.00000
2127.23072,0.00001
2125.30213,0.00004
2123.37354,-0.00001
2121.44496,-0.00005
2119.51637,-0.00006
2117.58778,-0.00003
2115.65920,-0.00002
2113.73061,-0.00003
2111.80202,-0.00009
2109.87344,-0.00015
2107.94485,-0.00010
2106.01627,-0.00008
2104.08768,-0.00006
2102.15909,-0.00005
2100.23051,-0.00011
2098.30192,-0.00015
2096.37333,-0.00012
2094.44475,-0.00006
2092.51616,-0.00002
2090.58758,0.00002
2088.65899,0.00001
2086.73040,-0.00007
2084.80182,-0.00009
2082.87323,-0.00006
2080.94464,0.00000
2079.01606,0.00001
2077.08747,-0.00001
2075.15888,-0.00009
2073.23030,-0.00018
2071.30171,-0.00025
2069.37313,-0.00036
2067.44454,-0.00036
2065.51595,-0.00034
2063.58737,-0.00032
2061.65878,-0.00026
2059.73019,-0.00025
2057.80161,-0.00026
2055.87302,-0.00025
2053.94443,-0.00019
2052.01585,-0.00013
2050.08726,-0.00005
2048.15868,0.00006
2046.23009,0.00016
2044.30150,0.00034
2042.37292,0.00053
2040.44433,0.00078
2038.51574,0.00111
2036.58716,0.00142
2034.65857,0.00162
2032.72999,0.00174
2030.80140,0.00190
2028.87281,0.00205
2026.94423,0.00220
2025.01564,0.00233
2023.08705,0.00231
2021.15847,0.00232
2019.22988,0.00249
2017.30129,0.00264
2015.37271,0.00274
2013.44412,0.00294
2011.51554,0.00322
2009.58695,0.00352
2007.65836,0.00379
2005.72978,0.00391
2003.80119,0.00395
2001.87260,0.00404
1999.94402,0.00417
1998.01543,0.00423
1996.08685,0.00424
1994.15826,0.00426
1992.22967,0.00413
1990.30109,0.00391
1988.37250,0.00379
1986.44391,0.00368
1984.51533,0.00363
1982.58674,0.00361
1980.65815,0.00349
1978.72957,0.00329
1976.80098,0.00317
1974.87240,0.00307
1972.94381,0.00285
1971.01522,0.00266
1969.08664,0.00255
1967.15805,0.00229
1965.22946,0.00198
1963.30088,0.00177
1961.37229,0.00161
1959.44371,0.00141
1957.51512,0.00123
1955.58653,0.00107
1953.65795,0.00098
1951.72936,0.00094
1949.80077,0.00088
1947.87219,0.00079
1945.94360,0.00067
1944.01501,0.00059
1942.08643,0.00044
1940.15784,0.00029
1938.22926,0.00030
1936.30067,0.00025
1934.37208,0.00011
1932.44350,-0.00000
1930.51491,-0.00006
1928.58632,-0.00010
1926.65774,-0.00016
1924.72915,0.00000
1922.80056,0.00006
1920.87198,0.00014
1918.94339,0.00038
1917.01481,0.00042
1915.08622,0.00070
1913.15763,0.00128
1911.22905,0.00175
1909.30046,0.00229
1907.37187,0.00297
1905.44329,0.00373
1903.51470,0.00434
1901.58612,0.00488
1899.65753,0.00559
1897.72894,0.00624
1895.80036,0.00681
1893.87177,0.00738
1891.94318,0.00803
1890.01460,0.00854
1888.08601,0.00884
1886.15742,0.00923
1884.22884,0.00950
1882.30025,0.00975
1880.37167,0.01003
1878.44308,0.01022
1876.51449,0.01043
1874.58591,0.01053
1872.65732,0.01068
1870.72873,0.01073
1868.80015,0.01041
1866.87156,0.00991
1864.94298,0.00957
1863.01439,0.00914
1861.08580,0.00838
1859.15722,0.00753
1857.22863,0.00649
1855.30004,0.00543
1853.37146,0.00438
1851.44287,0.00341
1849.51428,0.00256
1847.58570,0.00184
1845.65711,0.00145
1843.72853,0.00062
1841.79994,0.00000
1839.87135,-0.00012
1837.94277,-0.00045
1836.01418,-0.00074
1834.08559,-0.00090
1832.15701,-0.00079
1830.22842,-0.00084
1828.29984,-0.00098
1826.37125,-0.00058
1824.44266,-0.00043
1822.51408,-0.00031
1820.58549,0.00012
1818.65690,0.00056
1816.72832,0.00109
1814.79973,0.00166
1812.87114,0.00236
1810.94256,0.00306
1809.01397,0.00378
1807.08539,0.00465
1805.15680,0.00570
1803.22821,0.00696
1801.29963,0.00809
1799.37104,0.00916
1797.44245,0.01042
1795.51387,0.01191
1793.58528,0.01352
1791.65669,0.01482
1789.72811,0.01627
1787.79952,0.01824
1785.87094,0.02000
1783.94235,0.02169
1782.01376,0.02350
1780.08518,0.02519
1778.15659,0.02684
1776.22800,0.02856
1774.29942,0.03044
1772.37083,0.03174
1770.44225,0.03290
1768.51366,0.03465
1766.58507,0.03620
1764.65649,0.03809
1762.72790,0.04003
1760.79931,0.04162
1758.87073,0.04379
1756.94214,0.04610
1755.01355,0.04858
1753.08497,0.05162
1751.15638,0.05466
1749.22780,0.05762
1747.29921,0.06107
1745.37062,0.06493
1743.44204,0.06902
1741.51345,0.07327
1739.58486,0.07723
1737.65628,0.08126
1735.72769,0.08537
1733.79911,0.08816
1731.87052,0.09065
1729.94193,0.09403
1728.01335,0.09699
1726.08476,0.09997
1724.15617,0.10310
1722.22759,0.10624
1720.29900,0.10992
1718.37041,0.11292
1716.44183,0.11531
1714.51324,0.11803
1712.58466,0.12082
1710.65607,0.12343
1708.72748,0.12590
1706.79890,0.12844
1704.87031,0.13062
1702.94172,0.13350
1701.01314,0.13650
1699.08455,0.13873
1697.15596,0.14215
1695.22738,0.14510
1693.29879,0.14786
1691.37021,0.15158
1689.44162,0.15456
1687.51303,0.15793
1685.58445,0.16131
1683.65586,0.16344
1681.72727,0.16638
1679.79869,0.16978
1677.87010,0.17309
1675.94152,0.17584
1674.01293,0.17812
1672.08434,0.18096
1670.15576,0.18331
1668.22717,0.18497
1666.29858,0.18690
1664.37000,0.18891
1662.44141,0.19013
1660.51282,0.19107
1658.58424,0.19199
1656.65565,0.19276
1654.72707,0.19359
1652.79848,0.19212
1650.86989,0.19096
1648.94131,0.19185
1647.01272,0.19160
1645.08413,0.19068
1643.15555,0.19048
1641.22696,0.19059
1639.29838,0.19063
1637.36979,0.19081
1635.44120,0.19026
1633.51262,0.18937
1631.58403,0.18937
1629.65544,0.18869
1627.72686,0.18730
1625.79827,0.18557
1623.86968,0.18342
1621.94110,0.18082
1620.01251,0.17874
1618.08393,0.17711
1616.15534,0.17404
1614.22675,0.17158
1612.29817,0.16991
1610.36958,0.16789
1608.44099,0.16591
1606.51241,0.16389
1604.58382,0.16201
1602.65524,0.15994
1600.72665,0.15793
1598.79806,0.15582
1596.86948,0.15376
1594.94089,0.15181
1593.01230,0.14976
1591.08372,0.14788
1589.15513,0.14589
1587.22654,0.14402
1585.29796,0.14193
1583.36937,0.13987
1581.44079,0.13788
1579.51220,0.13624
1577.58361,0.13499
1575.65503,0.13278
1573.72644,0.13130
1571.79785,0.13096
1569.86927,0.13018
1567.94068,0.12948
1566.01209,0.12947
1564.08351,0.12953
1562.15492,0.13014
1560.22634,0.13069
1558.29775,0.12950
1556.36916,0.12944
1554.44058,0.13015
1552.51199,0.13035
1550.58340,0.13089
1548.65482,0.13090
1546.72623,0.13090
1544.79765,0.13071
1542.86906,0.13033
1540.94047,0.12999
1539.01189,0.12817
1537.08330,0.12728
1535.15471,0.12721
1533.22613,0.12604
1531.29754,0.12460
1529.36895,0.12371
1527.44037,0.12257
1525.51178,0.12090
1523.58320,0.11992
1521.65461,0.11876
1519.72602,0.11754
1517.79744,0.11716
1515.86885,0.11605
1513.94026,0.11408
1512.01168,0.11125
1510.08309,0.10812
1508.15451,0.10508
1506.22592,0.10044
1504.29733,0.09600
1502.36875,0.09294
1500.44016,0.08961
1498.51157,0.08605
1496.58299,0.08242
1494.65440,0.07903
1492.72581,0.07660
1490.79723,0.07439
1488.86864,0.07220
1486.94006,0.07072
1485.01147,0.06991
1483.08288,0.06978
1481.15430,0.07014
1479.22571,0.07120
1477.29712,0.07326
1475.36854,0.07638
1473.43995,0.08088
1471.51137,0.08637
1469.58278,0.09248
1467.65419,0.09788
1465.72561,0.10061
1463.79702,0.10156
1461.86843,0.10227
1459.93985,0.10330
1458.01126,0.10432
1456.08267,0.10433
1454.15409,0.10455
1452.22550,0.10483
1450.29692,0.10465
1448.36833,0.10443
1446.43974,0.10401
1444.51116,0.10390
1442.58257,0.10373
1440.65398,0.10352
1438.72540,0.10372
1436.79681,0.10348
1434.86822,0.10305
1432.93964,0.10307
1431.01105,0.10303
1429.08247,0.10280
1427.15388,0.10286
1425.22529,0.10305
1423.29671,0.10305
1421.36812,0.10337
1419.43953,0.10346
1417.51095,0.10303
1415.58236,0.10317
1413.65378,0.10332
1411.72519,0.10305
1409.79660,0.10275
1407.86802,0.10237
1405.93943,0.10183
1404.01084,0.10096
1402.08226,0.10009
1400.15367,0.09901
1398.22508,0.09763
1396.29650,0.09637
1394.36791,0.09493
1392.43933,0.09360
1390.51074,0.09254
1388.58215,0.09101
1386.65357,0.08813
1384.72498,0.08575
1382.79639,0.08687
1380.86781,0.08999
1378.93922,0.09190
1377.01064,0.09233
1375.08205,0.09198
1373.15346,0.09102
1371.22488,0.08996
1369.29629,0.08898
1367.36770,0.08762
1365.43912,0.08610
1363.51053,0.08452
1361.58194,0.08292
1359.65336,0.08176
1357.72477,0.08098
1355.79619,0.08021
1353.86760,0.07933
1351.93901,0.07861
1350.01043,0.07807
1348.08184,0.07744
1346.15325,0.07670
1344.22467,0.07604
1342.29608,0.07557
1340.36750,0.07509
1338.43891,0.07453
1336.51032,0.07403
1334.58174,0.07361
1332.65315,0.07309
1330.72456,0.07265
1328.79598,0.07226
1326.86739,0.07180
1324.93880,0.07157
1323.01022,0.07150
1321.08163,0.07133
1319.15305,0.07107
1317.22446,0.07080
1315.29587,0.07058
1313.36729,0.07027
1311.43870,0.06993
1309.51011,0.06962
1307.58153,0.06937
1305.65294,0.06932
1303.72435,0.06928
1301.79577,0.06921
1299.86718,0.06919
1297.93860,0.06932
1296.01001,0.06961
1294.08142,0.06999
1292.15284,0.07061
1290.22425,0.07149
1288.29566,0.07256
1286.36708,0.07379
1284.43849,0.07520
1282.50991,0.07684
1280.58132,0.07849
1278.65273,0.07998
1276.72415,0.08146
1274.79556,0.08318
1272.86697,0.08513
1270.93839,0.08729
1269.00980,0.08950
1267.08121,0.09176
1265.15263,0.09438
1263.22404,0.09740
1261.29546,0.10091
1259.36687,0.10496
1257.43828,0.10940
1255.50970,0.11413
1253.58111,0.11926
1251.65252,0.12486
1249.72394,0.13047
1247.79535,0.13596
1245.86677,0.14138
1243.93818,0.14646
1242.00959,0.15114
1240.08101,0.15554
1238.15242,0.15949
1236.22383,0.16294
1234.29525,0.16609
1232.36666,0.16904
1230.43807,0.17191
1228.50949,0.17468
1226.58090,0.17726
1224.65232,0.17981
1222.72373,0.18239
1220.79514,0.18507
1218.86656,0.18772
1216.93797,0.19031
1215.00938,0.19319
1213.08080,0.19640
1211.15221,0.19955
1209.22363,0.20251
1207.29504,0.20529
1205.36645,0.20788
1203.43787,0.21037
1201.50928,0.21270
1199.58069,0.21498
1197.65211,0.21739
1195.72352,0.21964
1193.79493,0.22175
1191.86635,0.22399
1189.93776,0.22625
1188.00918,0.22828
1186.08059,0.23029
1184.15200,0.23240
1182.22342,0.23452
1180.29483,0.23709
1178.36624,0.24002
1176.43766,0.24286
1174.50907,0.24576
1172.58048,0.24893
1170.65190,0.25227
1168.72331,0.25555
1166.79473,0.25908
1164.86614,0.26271
1162.93755,0.26560
1161.00897,0.26744
1159.08038,0.26861
1157.15179,0.26972
1155.22321,0.27093
1153.29462,0.27237
1151.36604,0.27426
1149.43745,0.27647
1147.50886,0.27894
1145.58028,0.28177
1143.65169,0.28492
1141.72310,0.28804
1139.79452,0.29149
1137.86593,0.29568
1135.93734,0.29995
1134.00876,0.30430
1132.08017,0.30909
1130.15159,0.31369
1128.22300,0.31859
1126.29441,0.32463
1124.36583,0.33068
1122.43724,0.33629
1120.50865,0.34219
1118.58007,0.34859
1116.65148,0.35524
1114.72290,0.36182
1112.79431,0.36871
1110.86572,0.37562
1108.93714,0.38173
1107.00855,0.38709
1105.07996,0.39235
1103.15138,0.39713
1101.22279,0.40022
1099.29420,0.40259
1097.36562,0.40488
1095.43703,0.40650
1093.50845,0.40730
1091.57986,0.40762
1089.65127,0.40766
1087.72269,0.40726
1085.79410,0.40705
1083.86551,0.40668
1081.93693,0.40598
1080.00834,0.40534
1078.07976,0.40437
1076.15117,0.40317
1074.22258,0.40178
1072.29400,0.40127
1070.36541,0.40136
1068.43682,0.40119
1066.50824,0.40166
1064.57965,0.40249
1062.65106,0.40262
1060.72248,0.40163
1058.79389,0.40066
1056.86531,0.39979
1054.93672,0.39803
1053.00813,0.39630
1051.07955,0.39523
1049.15096,0.39489
1047.22237,0.39523
1045.29379,0.39627
1043.36520,0.39856
1041.43661,0.40188
1039.50803,0.40524
1037.57944,0.40818
1035.65086,0.41053
1033.72227,0.41193
1031.79368,0.41255
1029.86510,0.41205
1027.93651,0.41035
1026.00792,0.40808
1024.07934,0.40524
1022.15075,0.40232
1020.22217,0.39949
1018.29358,0.39655
1016.36499,0.39397
1014.43641,0.39153
1012.50782,0.38853
1010.57923,0.38520
1008.65065,0.38191
1006.72206,0.37821
1004.79347,0.37407
1002.86489,0.36968
1000.93630,0.36457
999.00772,0.35890
997.07913,0.35357
995.15054,0.34816
993.22196,0.34200
991.29337,0.33553
989.36478,0.32874
987.43620,0.32136
985.50761,0.31312
983.57903,0.30421
981.65044,0.29510
979.72185,0.28532
977.79327,0.27463
975.86468,0.26334
973.93609,0.25176
972.00751,0.24000
970.07892,0.22824
968.15033,0.21721
966.22175,0.20684
964.29316,0.19695
962.36458,0.18824
960.43599,0.18059
958.50740,0.17335
956.57882,0.16685
954.65023,0.16146
952.72164,0.15672
950.79306,0.15242
948.86447,0.14858
946.93589,0.14548
945.00730,0.14328
943.07871,0.14125
941.15013,0.13915
939.22154,0.13748
937.29295,0.13604
935.36437,0.13456
933.43578,0.13292
931.50719,0.13113
929.57861,0.12986
927.65002,0.12870
925.72144,0.12747
923.79285,0.12692
921.86426,0.12680
919.93568,0.12671
918.00709,0.12637
916.07850,0.12577
914.14992,0.12501
912.22133,0.12311
910.29274,0.11973
908.36416,0.11503
906.43557,0.10903
904.50699,0.10208
902.57840,0.09478
900.64981,0.08742
898.72123,0.08003
896.79264,0.07333
894.86405,0.06750
892.93547,0.06235
891.00688,0.05777
889.07830,0.05350
887.14971,0.04934
885.22112,0.04514
883.29254,0.04133
881.36395,0.03767
879.43536,0.03411
877.50678,0.03088
875.57819,0.02760
873.64960,0.02436
871.72102,0.02102
869.79243,0.01745
867.86385,0.01385
865.93526,0.01107
864.00667,0.00891
862.07809,0.00629
860.14950,0.00407
858.22091,0.00230
856.29233,0.00106
854.36374,0.00043
852.43516,0.00000
850.50657,0.00035
848.57798,0.00132
846.64940,0.00286
844.72081,0.00493
842.79222,0.00738
840.86364,0.01060
838.93505,0.01445
837.00646,0.01861
835.07788,0.02227
833.14929,0.02588
831.22071,0.02895
829.29212,0.03055
827.36353,0.03177
825.43495,0.03247
823.50636,0.03245
821.57777,0.03262
819.64919,0.03358
817.72060,0.03518
815.79201,0.03714
813.86343,0.03982
811.93484,0.04376
810.00626,0.05003
808.07767,0.05866
806.14908,0.06882
804.22050,0.07947
802.29191,0.08736
800.36332,0.09013
798.43474,0.08852
796.50615,0.08372
794.57757,0.07740
792.64898,0.07118
790.72039,0.06599
788.79181,0.06256
786.86322,0.06040
784.93463,0.06013
783.00605,0.06235
781.07746,0.06470
779.14887,0.06386
777.22029,0.05857
775.29170,0.05120
773.36312,0.04367
771.43453,0.03705
769.50594,0.03256
767.57736,0.02993
765.64877,0.02907
763.72018,0.02894
761.79160,0.02910
759.86301,0.02993
757.93443,0.03081
756.00584,0.03117
754.07725,0.03067
752.14867,0.03047
750.22008,0.02999
748.29149,0.02814
746.36291,0.02587
744.43432,0.02293
742.50573,0.01944
740.57715,0.01588
738.64856,0.01290
736.71998,0.01031
734.79139,0.00749
732.86280,0.00598
730.93422,0.00610
729.00563,0.00666
727.07704,0.00674
725.14846,0.00628
723.21987,0.00603
721.29129,0.00576
719.36270,0.00452
717.43411,0.00245
715.50553,0.00113
713.57694,0.00055
711.64835,0.00063
709.71977,0.00218
707.79118,0.00429
705.86259,0.00670
703.93401,0.00952
702.00542,0.01257
700.07684,0.01702
698.14825,0.02348
696.21966,0.02876
694.29108,0.02867
692.36249,0.02450
690.43390,0.01954
688.50532,0.01537
686.57673,0.01222
684.64814,0.00989
682.71956,0.00872
680.79097,0.00779
678.86239,0.00684
676.93380,0.00622
675.00521,0.00562
673.07663,0.00496
671.14804,0.00412
669.21945,0.00259
667.29087,0.00067
665.36228,0.00000
663.43370,-0.00010
661.50511,0.00018
659.57652,0.00004
657.64794,0.00001
655.71935,0.00139
653.79076,0.00207
651.86218,0.00221
649.93359,0.00284
648.00500,0.00410
646.07642,0.00561
644.14783,0.00515
642.21925,0.00412
640.29066,0.00391
638.36207,0.00438
636.43349,0.00511
634.50490,0.00460
632.57631,0.00450
630.64773,0.00605
628.71914,0.00813
626.79056,0.00931
624.86197,0.00868
622.93338,0.00785
621.00480,0.00853
619.07621,0.00947
617.14762,0.01032
615.21904,0.01237
613.29045,0.01408
611.36186,0.01493
609.43328,0.01567
607.50469,0.01682
605.57611,0.01911
603.64752,0.02099
601.71893,0.02257
599.79035,0.02445
597.86176,0.02624
595.93317,0.02865
594.00459,0.03078
592.07600,0.03364
590.14742,0.03909
588.21883,0.04352
586.29024,0.04590
584.36166,0.05135
582.43307,0.05859
580.50448,0.06338
578.57590,0.06700
576.64731,0.07022
574.71872,0.07440
572.79014,0.08005
570.86155,0.08526
568.93297,0.09071
567.00438,0.09681
565.07579,0.10430
563.14721,0.11322
561.21862,0.12036
559.29003,0.12527
557.36145,0.13066
555.43286,0.13690
553.50427,0.14096
551.57569,0.14246
549.64710,0.14607
547.71852,0.15279
545.78993,0.16026
543.86134,0.16745
541.93276,0.17353
540.00417,0.17989
538.07558,0.18607
536.14700,0.18988
534.21841,0.19475
532.28983,0.20127
530.36124,0.20468
528.43265,0.20437
526.50407,0.20245
524.57548,0.20120
522.64689,0.19787
520.71831,0.18899
518.78972,0.18185
516.86113,0.17833
514.93255,0.17305
513.00396,0.16605
511.07538,0.15934
509.14679,0.15583
507.21820,0.15431
505.28962,0.15125
503.36103,0.14786
501.43244,0.14912
499.50386,0.15464
497.57527,0.15981
495.64669,0.16698
493.71810,0.17731
491.78951,0.18864
489.86093,0.19994
487.93234,0.21350
486.00375,0.22961
484.07517,0.24343
482.14658,0.25621
480.21799,0.26674
478.28941,0.27787
476.36082,0.28956
474.43224,0.29516
472.50365,0.29615
470.57506,0.29125
468.64648,0.28491
466.71789,0.27467
464.78930,0.25935
462.86072,0.24359
460.93213,0.22657
459.00355,0.21000
457.07496,0.19457
455.14637,0.18279
453.21779,0.16916
451.28920,0.15561
449.36061,0.14557
447.43203,0.13610
445.50344,0.13422
443.57485,0.13329
441.64627,0.12219
439.71768,0.10813
437.78910,0.10382
435.86051,0.10809
433.93192,0.10716
432.00334,0.09943
430.07475,0.09545
428.14616,0.09504
426.21758,0.09000
424.28899,0.08363
422.36040,0.07963
420.43182,0.07918
418.50323,0.07826
416.57465,0.06569
414.64606,0.05014
412.71747,0.04650
410.78889,0.04472
408.86030,0.03336
406.93171,0.02305
405.00313,0.00957
403.07454,0.00000
401.14596,-0.00012
399.21737,0.00000
