3747.24323,0.00000
3745.31464,0.00018
3743.38605,0.00171
3741.45747,0.00232
3739.52888,0.00213
3737.60030,0.00246
3735.67171,0.00331
3733.74312,0.00399
3731.81454,0.00462
3729.88595,0.00519
3727.95736,0.00560
3726.02878,0.00659
3724.10019,0.00784
3722.17161,0.00897
3720.24302,0.01049
3718.31443,0.01221
3716.38585,0.01416
3714.45726,0.01617
3712.52867,0.01865
3710.60009,0.02198
3708.67150,0.02505
3706.74291,0.02794
3704.81433,0.03074
3702.88574,0.03371
3700.95716,0.03669
3699.02857,0.03892
3697.09998,0.04038
3695.17140,0.04115
3693.24281,0.04176
3691.31422,0.04254
3689.38564,0.04420
3687.45705,0.04670
3685.52846,0.04871
3683.59988,0.05088
3681.67129,0.05385
3679.74271,0.05712
3677.81412,0.06017
3675.88553,0.06408
3673.95695,0.06880
3672.02836,0.07212
3670.09977,0.07622
3668.17119,0.08096
3666.24260,0.08468
3664.31402,0.08852
3662.38543,0.09219
3660.45684,0.09587
3658.52826,0.09929
3656.59967,0.10287
3654.67108,0.10648
3652.74250,0.10905
3650.81391,0.11201
3648.88532,0.11549
3646.95674,0.11858
3645.02815,0.12116
3643.09957,0.12355
3641.17098,0.12610
3639.24239,0.12849
3637.31381,0.13090
3635.38522,0.13340
3633.45663,0.13597
3631.52805,0.13806
3629.59946,0.14047
3627.67088,0.14350
3625.74229,0.14498
3623.81370,0.14589
3621.88512,0.14678
3619.95653,0.14715
3618.02794,0.14726
3616.09936,0.14666
3614.17077,0.14599
3612.24218,0.14576
3610.31360,0.14546
3608.38501,0.14535
3606.45643,0.14542
3604.52784,0.14527
3602.59925,0.14523
3600.67067,0.14554
3598.74208,0.14596
3596.81349,0.14621
3594.88491,0.14658
3592.95632,0.14717
3591.02774,0.14742
3589.09915,0.14785
3587.17056,0.14910
3585.24198,0.15011
3583.31339,0.15067
3581.38480,0.15128
3579.45622,0.15210
3577.52763,0.15329
3575.59904,0.15455
3573.67046,0.15581
3571.74187,0.15706
3569.81329,0.15815
3567.88470,0.15948
3565.95611,0.16111
3564.02753,0.16233
3562.09894,0.16328
3560.17035,0.16441
3558.24177,0.16574
3556.31318,0.16716
3554.38459,0.16838
3552.45601,0.16974
3550.52742,0.17128
3548.59884,0.17253
3546.67025,0.17380
3544.74166,0.17515
3542.81308,0.17640
3540.88449,0.17760
3538.95590,0.17884
3537.02732,0.18025
3535.09873,0.18163
3533.17015,0.18283
3531.24156,0.18409
3529.31297,0.18538
3527.38439,0.18658
3525.45580,0.18778
3523.52721,0.18909
3521.59863,0.19039
3519.67004,0.19159
3517.74145,0.19280
3515.81287,0.19393
3513.88428,0.19509
3511.95570,0.19635
3510.02711,0.19741
3508.09852,0.19855
3506.16994,0.19975
3504.24135,0.20095
3502.31276,0.20217
3500.38418,0.20322
3498.45559,0.20427
3496.52701,0.20522
3494.59842,0.20607
3492.66983,0.20708
3490.74125,0.20816
3488.81266,0.20902
3486.88407,0.20995
3484.95549,0.21110
3483.02690,0.21215
3481.09831,0.21308
3479.16973,0.21385
3477.24114,0.21466
3475.31256,0.21555
3473.38397,0.21631
3471.45538,0.21701
3469.52680,0.21778
3467.59821,0.21860
3465.66962,0.21922
3463.74104,0.21991
3461.81245,0.22076
3459.88386,0.22154
3457.95528,0.22225
3456.02669,0.22270
3454.09811,0.22321
3452.16952,0.22396
3450.24093,0.22479
3448.31235,0.22553
3446.38376,0.22615
3444.45517,0.22672
3442.52659,0.22727
3440.59800,0.22794
3438.66942,0.22851
3436.74083,0.22896
3434.81224,0.22948
3432.88366,0.22999
3430.95507,0.23056
3429.02648,0.23113
3427.09790,0.23167
3425.16931,0.23218
3423.24072,0.23274
3421.31214,0.23329
3419.38355,0.23372
3417.45497,0.23410
3415.52638,0.23443
3413.59779,0.23472
3411.66921,0.23493
3409.74062,0.23536
3407.81203,0.23601
3405.88345,0.23640
3403.95486,0.23673
3402.02628,0.23718
3400.09769,0.23743
3398.16910,0.23764
3396.24052,0.23795
3394.31193,0.23834
3392.38334,0.23884
3390.45476,0.23918
3388.52617,0.23926
3386.59758,0.23944
3384.66900,0.23991
3382.74041,0.24035
3380.81183,0.24063
3378.88324,0.24087
3376.95465,0.24090
3375.02607,0.24113
3373.09748,0.24163
3371.16889,0.24206
3369.24031,0.24230
3367.31172,0.24241
3365.38314,0.24266
3363.45455,0.24284
3361.52596,0.24304
3359.59738,0.24339
3357.66879,0.24366
3355.74020,0.24370
3353.81162,0.24367
3351.88303,0.24409
3349.95444,0.24453
3348.02586,0.24470
3346.09727,0.24483
3344.16869,0.24486
3342.24010,0.24512
3340.31151,0.24545
3338.38293,0.24553
3336.45434,0.24549
3334.52575,0.24559
3332.59717,0.24575
3330.66858,0.24575
3328.73999,0.24580
3326.81141,0.24587
3324.88282,0.24592
3322.95424,0.24597
3321.02565,0.24591
3319.09706,0.24581
3317.16848,0.24575
3315.23989,0.24566
3313.31130,0.24564
3311.38272,0.24570
3309.45413,0.24582
3307.52555,0.24595
3305.59696,0.24588
3303.66837,0.24573
3301.73979,0.24566
3299.81120,0.24544
3297.88261,0.24515
3295.95403,0.24489
3294.02544,0.24481
3292.09685,0.24472
3290.16827,0.24433
3288.23968,0.24387
3286.31110,0.24349
3284.38251,0.24316
3282.45392,0.24277
3280.52534,0.24221
3278.59675,0.24155
3276.66816,0.24092
3274.73958,0.24027
3272.81099,0.23952
3270.88241,0.23875
3268.95382,0.23794
3267.02523,0.23705
3265.09665,0.23613
3263.16806,0.23523
3261.23947,0.23423
3259.31089,0.23316
3257.38230,0.23223
3255.45371,0.23133
3253.52513,0.23036
3251.59654,0.22924
3249.66796,0.22814
3247.73937,0.22727
3245.81078,0.22645
3243.88220,0.22548
3241.95361,0.22439
3240.02502,0.22337
3238.09644,0.22255
3236.16785,0.22176
3234.23927,0.22096
3232.31068,0.22017
3230.38209,0.21928
3228.45351,0.21840
3226.52492,0.21767
3224.59633,0.21706
3222.66775,0.21641
3220.73916,0.21554
3218.81057,0.21455
3216.88199,0.21365
3214.95340,0.21287
3213.02482,0.21218
3211.09623,0.21141
3209.16764,0.21048
3207.23906,0.20952
3205.31047,0.20878
3203.38188,0.20809
3201.45330,0.20711
3199.52471,0.20614
3197.59612,0.20534
3195.66754,0.20455
3193.73895,0.20369
3191.81037,0.20272
3189.88178,0.20179
3187.95319,0.20091
3186.02461,0.20000
3184.09602,0.19911
3182.16743,0.19824
3180.23885,0.19726
3178.31026,0.19633
3176.38168,0.19548
3174.45309,0.19449
3172.52450,0.19363
3170.59592,0.19275
3168.66733,0.19178
3166.73874,0.19100
3164.81016,0.19022
3162.88157,0.18929
3160.95298,0.18830
3159.02440,0.18749
3157.09581,0.18680
3155.16723,0.18600
3153.23864,0.18518
3151.31005,0.18427
3149.38147,0.18336
3147.45288,0.18269
3145.52429,0.18203
3143.59571,0.18116
3141.66712,0.18042
3139.73854,0.17989
3137.80995,0.17915
3135.88136,0.17834
3133.95278,0.17777
3132.02419,0.17732
3130.09560,0.17671
3128.16702,0.17611
3126.23843,0.17575
3124.30984,0.17522
3122.38126,0.17452
3120.45267,0.17399
3118.52409,0.17360
3116.59550,0.17321
3114.66691,0.17279
3112.73833,0.17234
3110.80974,0.17190
3108.88115,0.17151
3106.95257,0.17108
3105.02398,0.17066
3103.09540,0.17027
3101.16681,0.16990
3099.23822,0.16955
3097.30964,0.16910
3095.38105,0.16873
3093.45246,0.16837
3091.52388,0.16795
3089.59529,0.16763
3087.66670,0.16738
3085.73812,0.16710
3083.80953,0.16664
3081.88095,0.16617
3079.95236,0.16579
3078.02377,0.16532
3076.09519,0.16483
3074.16660,0.16422
3072.23801,0.16362
3070.30943,0.16311
3068.38084,0.16252
3066.45225,0.16193
3064.52367,0.16131
3062.59508,0.16062
3060.66650,0.15984
3058.73791,0.15904
3056.80932,0.15835
3054.88074,0.15761
3052.95215,0.15679
3051.02356,0.15602
3049.09498,0.15530
3047.16639,0.15454
3045.23781,0.15386
3043.30922,0.15330
3041.38063,0.15266
3039.45205,0.15197
3037.52346,0.15123
3035.59487,0.15059
3033.66629,0.15021
3031.73770,0.14982
3029.80911,0.14925
3027.88053,0.14870
3025.95194,0.14823
3024.02336,0.14769
3022.09477,0.14721
3020.16618,0.14690
3018.23760,0.14668
3016.30901,0.14653
3014.38042,0.14649
3012.45184,0.14654
3010.52325,0.14652
3008.59467,0.14656
3006.66608,0.14681
3004.73749,0.14710
3002.80891,0.14748
3000.88032,0.14796
2998.95173,0.14857
2997.02315,0.14930
2995.09456,0.15002
2993.16597,0.15087
2991.23739,0.15196
2989.30880,0.15320
2987.38022,0.15456
2985.45163,0.15602
2983.52304,0.15770
2981.59446,0.15968
2979.66587,0.16180
2977.73728,0.16381
2975.80870,0.16587
2973.88011,0.16812
2971.95153,0.17032
2970.02294,0.17254
2968.09435,0.17486
2966.16577,0.17731
2964.23718,0.17982
2962.30859,0.18218
2960.38001,0.18460
2958.45142,0.18694
2956.52283,0.18894
2954.59425,0.19086
2952.66566,0.19286
2950.73708,0.19498
2948.80849,0.19728
2946.87990,0.20003
2944.95132,0.20337
2943.02273,0.20717
2941.09414,0.21131
2939.16556,0.21580
2937.23697,0.22055
2935.30838,0.22528
2933.37980,0.22986
2931.45121,0.23427
2929.52263,0.23825
2927.59404,0.24161
2925.66545,0.24423
2923.73687,0.24584
2921.80828,0.24612
2919.87969,0.24478
2917.95111,0.24124
2916.02252,0.23496
2914.09394,0.22647
2912.16535,0.21762
2910.23676,0.21009
2908.30818,0.20425
2906.37959,0.19961
2904.45100,0.19562
2902.52242,0.19203
2900.59383,0.18883
2898.66524,0.18595
2896.73666,0.18326
2894.80807,0.18051
2892.87949,0.17779
2890.95090,0.17524
2889.02231,0.17277
2887.09373,0.17047
2885.16514,0.16840
2883.23655,0.16670
2881.30797,0.16540
2879.37938,0.16450
2877.45080,0.16404
2875.52221,0.16393
2873.59362,0.16410
2871.66504,0.16429
2869.73645,0.16447
2867.80786,0.16504
2865.87928,0.16616
2863.95069,0.16811
2862.02210,0.17131
2860.09352,0.17571
2858.16493,0.18098
2856.23635,0.18673
2854.30776,0.19211
2852.37917,0.19545
2850.45059,0.19424
2848.52200,0.18689
2846.59341,0.17525
2844.66483,0.16310
2842.73624,0.15251
2840.80766,0.14382
2838.87907,0.13687
2836.95048,0.13128
2835.02190,0.12672
2833.09331,0.12293
2831.16472,0.11975
2829.23614,0.11701
2827.30755,0.11461
2825.37896,0.11242
2823.45038,0.11039
2821.52179,0.10864
2819.59321,0.10706
2817.66462,0.10552
2815.73603,0.10409
2813.80745,0.10274
2811.87886,0.10150
2809.95027,0.10030
2808.02169,0.09913
2806.09310,0.09808
2804.16451,0.09707
2802.23593,0.09602
2800.30734,0.09503
2798.37876,0.09418
2796.45017,0.09325
2794.52158,0.09230
2792.59300,0.09148
2790.66441,0.09062
2788.73582,0.08977
2786.80724,0.08898
2784.87865,0.08829
2782.95007,0.08758
2781.02148,0.08685
2779.09289,0.08624
2777.16431,0.08563
2775.23572,0.08502
2773.30713,0.08446
2771.37855,0.08385
2769.44996,0.08333
2767.52137,0.08285
2765.59279,0.08224
2763.66420,0.08167
2761.73562,0.08119
2759.80703,0.08072
2757.87844,0.08029
2755.94986,0.07986
2754.02127,0.07942
2752.09268,0.07898
2750.16410,0.07860
2748.23551,0.07826
2746.30693,0.07783
2744.37834,0.07735
2742.44975,0.07701
2740.52117,0.07670
2738.59258,0.07628
2736.66399,0.07583
2734.73541,0.07542
2732.80682,0.07502
2730.87823,0.07463
2728.94965,0.07425
2727.02106,0.07377
2725.09248,0.07330
2723.16389,0.07296
2721.23530,0.07253
2719.30672,0.07198
2717.37813,0.07155
2715.44954,0.07116
2713.52096,0.07059
2711.59237,0.07003
2709.66379,0.06961
2707.73520,0.06918
2705.80661,0.06875
2703.87803,0.06833
2701.94944,0.06792
2700.02085,0.06752
2698.09227,0.06714
2696.16368,0.06688
2694.23509,0.06659
2692.30651,0.06626
2690.37792,0.06595
2688.44934,0.06561
2686.52075,0.06530
2684.59216,0.06497
2682.66358,0.06464
2680.73499,0.06430
2678.80640,0.06392
2676.87782,0.06355
2674.94923,0.06323
2673.02064,0.06293
2671.09206,0.06251
2669.16347,0.06214
2667.23489,0.06186
2665.30630,0.06148
2663.37771,0.06100
2661.44913,0.06064
2659.52054,0.06042
2657.59195,0.06010
2655.66337,0.05965
2653.73478,0.05930
2651.80620,0.05903
2649.87761,0.05873
2647.94902,0.05843
2646.02044,0.05808
2644.09185,0.05771
2642.16326,0.05740
2640.23468,0.05715
2638.30609,0.05686
2636.37750,0.05654
2634.44892,0.05620
2632.52033,0.05587
2630.59175,0.05548
2628.66316,0.05503
2626.73457,0.05465
2624.80599,0.05438
2622.87740,0.05408
2620.94881,0.05371
2619.02023,0.05336
2617.09164,0.05298
2615.16306,0.05261
2613.23447,0.05226
2611.30588,0.05189
2609.37730,0.05156
2607.44871,0.05121
2605.52012,0.05081
2603.59154,0.05041
2601.66295,0.05007
2599.73436,0.04973
2597.80578,0.04934
2595.87719,0.04892
2593.94861,0.04852
2592.02002,0.04812
2590.09143,0.04773
2588.16285,0.04739
2586.23426,0.04703
2584.30567,0.04664
2582.37709,0.04631
2580.44850,0.04598
2578.51991,0.04566
2576.59133,0.04531
2574.66274,0.04487
2572.73416,0.04449
2570.80557,0.04418
2568.87698,0.04397
2566.94840,0.04370
2565.01981,0.04328
2563.09122,0.04291
2561.16264,0.04260
2559.23405,0.04232
2557.30547,0.04204
2555.37688,0.04177
2553.44829,0.04147
2551.51971,0.04113
2549.59112,0.04081
2547.66253,0.04051
2545.73395,0.04019
2543.80536,0.03986
2541.87677,0.03954
2539.94819,0.03926
2538.01960,0.03901
2536.09102,0.03872
2534.16243,0.03839
2532.23384,0.03807
2530.30526,0.03787
2528.37667,0.03766
2526.44808,0.03732
2524.51950,0.03700
2522.59091,0.03670
2520.66233,0.03640
2518.73374,0.03614
2516.80515,0.03585
2514.87657,0.03554
2512.94798,0.03523
2511.01939,0.03488
2509.09081,0.03450
2507.16222,0.03417
2505.23363,0.03390
2503.30505,0.03365
2501.37646,0.03333
2499.44788,0.03296
2497.51929,0.03264
2495.59070,0.03233
2493.66212,0.03205
2491.73353,0.03180
2489.80494,0.03147
2487.87636,0.03108
2485.94777,0.03071
2484.01919,0.03042
2482.09060,0.03018
2480.16201,0.02991
2478.23343,0.02957
2476.30484,0.02918
2474.37625,0.02884
2472.44767,0.02859
2470.51908,0.02831
2468.59049,0.02799
2466.66191,0.02771
2464.73332,0.02737
2462.80474,0.02697
2460.87615,0.02664
2458.94756,0.02635
2457.01898,0.02604
2455.09039,0.02573
2453.16180,0.02541
2451.23322,0.02510
2449.30463,0.02484
2447.37604,0.02461
2445.44746,0.02434
2443.51887,0.02398
2441.59029,0.02363
2439.66170,0.02332
2437.73311,0.02302
2435.80453,0.02269
2433.87594,0.02231
2431.94735,0.02193
2430.01877,0.02160
2428.09018,0.02133
2426.16160,0.02107
2424.23301,0.02078
2422.30442,0.02050
2420.37584,0.02022
2418.44725,0.01994
2416.51866,0.01967
2414.59008,0.01941
2412.66149,0.01916
2410.73290,0.01888
2408.80432,0.01857
2406.87573,0.01822
2404.94715,0.01790
2403.01856,0.01760
2401.08997,0.01735
2399.16139,0.01719
2397.23280,0.01689
2395.30421,0.01646
2393.37563,0.01617
2391.44704,0.01596
2389.51846,0.01570
2387.58987,0.01546
2385.66128,0.01520
2383.73270,0.01492
2381.80411,0.01468
2379.87552,0.01444
2377.94694,0.01417
2376.01835,0.01386
2374.08976,0.01368
2372.16118,0.01356
2370.23259,0.01332
2368.30401,0.01307
2366.37542,0.01284
2364.44683,0.01270
2362.51825,0.01258
2360.58966,0.01237
2358.66107,0.01219
2356.73249,0.01205
2354.80390,0.01186
2352.87532,0.01162
2350.94673,0.01132
2349.01814,0.01090
2347.08956,0.01056
2345.16097,0.01042
2343.23238,0.01037
2341.30380,0.01038
2339.37521,0.01035
2337.44662,0.01022
2335.51804,0.00992
2333.58945,0.00961
2331.66087,0.00942
2329.73228,0.00918
2327.80369,0.00900
2325.87511,0.00879
2323.94652,0.00855
2322.01793,0.00841
2320.08935,0.00827
2318.16076,0.00812
2316.23217,0.00788
2314.30359,0.00761
2312.37500,0.00736
2310.44642,0.00715
2308.51783,0.00695
2306.58924,0.00678
2304.66066,0.00668
2302.73207,0.00654
2300.80348,0.00631
2298.87490,0.00610
2296.94631,0.00596
2295.01773,0.00579
2293.08914,0.00560
2291.16055,0.00547
2289.23197,0.00538
2287.30338,0.00525
2285.37479,0.00505
2283.44621,0.00490
2281.51762,0.00477
2279.58903,0.00462
2277.66045,0.00451
2275.73186,0.00435
2273.80328,0.00425
2271.87469,0.00418
2269.94610,0.00402
2268.01752,0.00392
2266.08893,0.00381
2264.16034,0.00370
2262.23176,0.00359
2260.30317,0.00343
2258.37459,0.00328
2256.44600,0.00314
2254.51741,0.00311
2252.58883,0.00314
2250.66024,0.00310
2248.73165,0.00301
2246.80307,0.00287
2244.87448,0.00279
2242.94589,0.00274
2241.01731,0.00264
2239.08872,0.00257
2237.16014,0.00250
2235.23155,0.00242
2233.30296,0.00232
2231.37438,0.00225
2229.44579,0.00217
2227.51720,0.00204
2225.58862,0.00197
2223.66003,0.00191
2221.73145,0.00179
2219.80286,0.00174
2217.87427,0.00171
2215.94569,0.00161
2214.01710,0.00155
2212.08851,0.00148
2210.15993,0.00143
2208.23134,0.00141
2206.30275,0.00135
2204.37417,0.00126
2202.44558,0.00116
2200.51700,0.00119
2198.58841,0.00123
2196.65982,0.00118
2194.73124,0.00114
2192.80265,0.00107
2190.87406,0.00107
2188.94548,0.00107
2187.01689,0.00102
2185.08830,0.00099
2183.15972,0.00094
2181.23113,0.00090
2179.30255,0.00090
2177.37396,0.00090
2175.44537,0.00084
2173.51679,0.00079
2171.58820,0.00070
2169.65961,0.00060
2167.73103,0.00067
2165.80244,0.00082
2163.87386,0.00089
2161.94527,0.00091
2160.01668,0.00079
2158.08810,0.00066
2156.15951,0.00064
2154.23092,0.00072
2152.30234,0.00074
2150.37375,0.00065
2148.44516,0.00062
2146.51658,0.00065
2144.58799,0.00064
2142.65941,0.00054
2140.73082,0.00049
2138.80223,0.00056
2136.87365,0.00059
2134.94506,0.00052
2133.01647,0.00042
2131.08789,0.00039
2129.15930,0.00039
2127.23072,0.00033
2125.30213,0.00028
2123.37354,0.00027
2121.44496,0.00027
2119.51637,0.00023
2117.58778,0.00019
2115.65920,0.00022
2113.73061,0.00022
2111.80202,0.00012
2109.87344,0.00007
2107.94485,0.00008
2106.01627,0.00009
2104.08768,0.00009
2102.15909,0.00009
2100.23051,0.00009
2098.30192,0.00005
2096.37333,0.00000
2094.44475,0.00001
2092.51616,0.00002
2090.58758,0.00007
2088.65899,0.00012
2086.73040,0.00010
2084.80182,0.00007
2082.87323,-0.00000
2080.94464,0.00000
2079.01606,0.00004
2077.08747,0.00007
2075.15888,0.00008
2073.23030,0.00010
2071.30171,0.00013
2069.37313,0.00002
2067.44454,-0.00005
2065.51595,-0.00000
2063.58737,0.00005
2061.65878,0.00008
2059.73019,0.00010
2057.80161,0.00010
2055.87302,0.00012
2053.94443,0.00025
2052.01585,0.00033
2050.08726,0.00032
2048.15868,0.00039
2046.23009,0.00049
2044.30150,0.00064
2042.37292,0.00078
2040.44433,0.00095
2038.51574,0.00118
2036.58716,0.00140
2034.65857,0.00153
2032.72999,0.00163
2030.80140,0.00180
2028.87281,0.00193
2026.94423,0.00200
2025.01564,0.00203
2023.08705,0.00208
2021.15847,0.00215
2019.22988,0.00214
2017.30129,0.00216
2015.37271,0.00224
2013.44412,0.00242
2011.51554,0.00257
2009.58695,0.00261
2007.65836,0.00272
2005.72978,0.00279
2003.80119,0.00286
2001.87260,0.00295
1999.94402,0.00299
1998.01543,0.00299
1996.08685,0.00296
1994.15826,0.00293
1992.22967,0.00295
1990.30109,0.00300
1988.37250,0.00286
1986.44391,0.00268
1984.51533,0.00268
1982.58674,0.00272
1980.65815,0.00268
1978.72957,0.00260
1976.80098,0.00252
1974.87240,0.00241
1972.94381,0.00236
1971.01522,0.00230
1969.08664,0.00211
1967.15805,0.00199
1965.22946,0.00187
1963.30088,0.00169
1961.37229,0.00153
1959.44371,0.00143
1957.51512,0.00134
1955.58653,0.00121
1953.65795,0.00112
1951.72936,0.00100
1949.80077,0.00090
1947.87219,0.00083
1945.94360,0.00070
1944.01501,0.00061
1942.08643,0.00062
1940.15784,0.00054
1938.22926,0.00033
1936.30067,0.00022
1934.37208,0.00027
1932.44350,0.00028
1930.51491,0.00013
1928.58632,0.00000
1926.65774,-0.00002
1924.72915,0.00000
1922.80056,0.00003
1920.87198,0.00007
1918.94339,0.00018
1917.01481,0.00038
1915.08622,0.00052
1913.15763,0.00069
1911.22905,0.00094
1909.30046,0.00131
1907.37187,0.00172
1905.44329,0.00212
1903.51470,0.00257
1901.58612,0.00301
1899.65753,0.00340
1897.72894,0.00377
1895.80036,0.00423
1893.87177,0.00466
1891.94318,0.00495
1890.01460,0.00528
1888.08601,0.00560
1886.15742,0.00579
1884.22884,0.00589
1882.30025,0.00602
1880.37167,0.00620
1878.44308,0.00632
1876.51449,0.00635
1874.58591,0.00634
1872.65732,0.00627
1870.72873,0.00623
1868.80015,0.00626
1866.87156,0.00606
1864.94298,0.00564
1863.01439,0.00524
1861.08580,0.00474
1859.15722,0.00422
1857.22863,0.00372
1855.30004,0.00314
1853.37146,0.00249
1851.44287,0.00192
1849.51428,0.00145
1847.58570,0.00093
1845.65711,0.00056
1843.72853,0.00049
1841.79994,0.00032
1839.87135,0.00000
1837.94277,-0.00025
1836.01418,-0.00038
1834.08559,-0.00046
1832.15701,-0.00043
1830.22842,-0.00030
1828.29984,-0.00018
1826.37125,-0.00009
1824.44266,0.00029
1822.51408,0.00072
1820.58549,0.00102
1818.65690,0.00154
1816.72832,0.00225
1814.79973,0.00303
1812.87114,0.00388
1810.94256,0.00487
1809.01397,0.00592
1807.08539,0.00703
1805.15680,0.00835
1803.22821,0.00978
1801.29963,0.01145
1799.37104,0.01329
1797.44245,0.01517
1795.51387,0.01704
1793.58528,0.01916
1791.65669,0.02167
1789.72811,0.02400
1787.79952,0.02618
1785.87094,0.02861
1783.94235,0.03123
1782.01376,0.03375
1780.08518,0.03626
1778.15659,0.03878
1776.22800,0.04107
1774.29942,0.04333
1772.37083,0.04582
1770.44225,0.04825
1768.51366,0.05041
1766.58507,0.05272
1764.65649,0.05494
1762.72790,0.05723
1760.79931,0.06005
1758.87073,0.06268
1756.94214,0.06560
1755.01355,0.06883
1753.08497,0.07209
1751.15638,0.07599
1749.22780,0.08010
1747.29921,0.08424
1745.37062,0.08859
1743.44204,0.09330
1741.51345,0.09800
1739.58486,0.10286
1737.65628,0.10721
1735.72769,0.11065
1733.79911,0.11480
1731.87052,0.11839
1729.94193,0.12099
1728.01335,0.12383
1726.08476,0.12668
1724.15617,0.12976
1722.22759,0.13291
1720.29900,0.13579
1718.37041,0.13896
1716.44183,0.14248
1714.51324,0.14545
1712.58466,0.14779
1710.65607,0.15014
1708.72748,0.15248
1706.79890,0.15500
1704.87031,0.15773
1702.94172,0.16016
1701.01314,0.16323
1699.08455,0.16696
1697.15596,0.16970
1695.22738,0.17295
1693.29879,0.17618
1691.37021,0.17871
1689.44162,0.18194
1687.51303,0.18483
1685.58445,0.18789
1683.65586,0.19187
1681.72727,0.19504
1679.79869,0.19790
1677.87010,0.20085
1675.94152,0.20396
1674.01293,0.20691
1672.08434,0.20939
1670.15576,0.21175
1668.22717,0.21424
1666.29858,0.21618
1664.37000,0.21764
1662.44141,0.21928
1660.51282,0.22048
1658.58424,0.22122
1656.65565,0.22127
1654.72707,0.22118
1652.79848,0.22151
1650.86989,0.22101
1648.94131,0.21999
1647.01272,0.21938
1645.08413,0.21913
1643.15555,0.21838
1641.22696,0.21794
1639.29838,0.21776
1637.36979,0.21759
1635.44120,0.21792
1633.51262,0.21774
1631.58403,0.21686
1629.65544,0.21549
1627.72686,0.21389
1625.79827,0.21187
1623.86968,0.20941
1621.94110,0.20659
1620.01251,0.20349
1618.08393,0.20083
1616.15534,0.19828
1614.22675,0.19568
1612.29817,0.19308
1610.36958,0.19075
1608.44099,0.18860
1606.51241,0.18648
1604.58382,0.18452
1602.65524,0.18246
1600.72665,0.18054
1598.79806,0.17865
1596.86948,0.17691
1594.94089,0.17519
1593.01230,0.17340
1591.08372,0.17160
1589.15513,0.16965
1587.22654,0.16781
1585.29796,0.16585
1583.36937,0.16388
1581.44079,0.16195
1579.51220,0.16015
1577.58361,0.15861
1575.65503,0.15744
1573.72644,0.15661
1571.79785,0.15559
1569.86927,0.15506
1567.94068,0.15498
1566.01209,0.15494
1564.08351,0.15515
1562.15492,0.15518
1560.22634,0.15567
1558.29775,0.15714
1556.36916,0.15782
1554.44058,0.15802
1552.51199,0.15842
1550.58340,0.15874
1548.65482,0.15897
1546.72623,0.15891
1544.79765,0.15881
1542.86906,0.15868
1540.94047,0.15836
1539.01189,0.15822
1537.08330,0.15749
1535.15471,0.15649
1533.22613,0.15587
1531.29754,0.15497
1529.36895,0.15385
1527.44037,0.15282
1525.51178,0.15190
1523.58320,0.15133
1521.65461,0.15142
1519.72602,0.15189
1517.79744,0.15192
1515.86885,0.15154
1513.94026,0.15001
1512.01168,0.14729
1510.08309,0.14420
1508.15451,0.14095
1506.22592,0.13752
1504.29733,0.13374
1502.36875,0.12958
1500.44016,0.12527
1498.51157,0.12110
1496.58299,0.11725
1494.65440,0.11345
1492.72581,0.11001
1490.79723,0.10706
1488.86864,0.10454
1486.94006,0.10276
1485.01147,0.10135
1483.08288,0.10058
1481.15430,0.10074
1479.22571,0.10163
1477.29712,0.10352
1475.36854,0.10659
1473.43995,0.11130
1471.51137,0.11757
1469.58278,0.12373
1467.65419,0.12851
1465.72561,0.13139
1463.79702,0.13284
1461.86843,0.13342
1459.93985,0.13391
1458.01126,0.13507
1456.08267,0.13634
1454.15409,0.13663
1452.22550,0.13618
1450.29692,0.13576
1448.36833,0.13541
1446.43974,0.13501
1444.51116,0.13458
1442.58257,0.13414
1440.65398,0.13381
1438.72540,0.13350
1436.79681,0.13343
1434.86822,0.13316
1432.93964,0.13270
1431.01105,0.13247
1429.08247,0.13234
1427.15388,0.13223
1425.22529,0.13210
1423.29671,0.13209
1421.36812,0.13198
1419.43953,0.13191
1417.51095,0.13188
1415.58236,0.13145
1413.65378,0.13074
1411.72519,0.12990
1409.79660,0.12907
1407.86802,0.12813
1405.93943,0.12716
1404.01084,0.12613
1402.08226,0.12488
1400.15367,0.12355
1398.22508,0.12232
1396.29650,0.12121
1394.36791,0.12019
1392.43933,0.11930
1390.51074,0.11810
1388.58215,0.11625
1386.65357,0.11279
1384.72498,0.10945
1382.79639,0.11106
1380.86781,0.11585
1378.93922,0.11879
1377.01064,0.11963
1375.08205,0.11956
1373.15346,0.11908
1371.22488,0.11813
1369.29629,0.11697
1367.36770,0.11571
1365.43912,0.11412
1363.51053,0.11260
1361.58194,0.11126
1359.65336,0.11016
1357.72477,0.10936
1355.79619,0.10861
1353.86760,0.10780
1351.93901,0.10714
1350.01043,0.10674
1348.08184,0.10627
1346.15325,0.10586
1344.22467,0.10561
1342.29608,0.10528
1340.36750,0.10489
1338.43891,0.10449
1336.51032,0.10417
1334.58174,0.10394
1332.65315,0.10369
1330.72456,0.10347
1328.79598,0.10325
1326.86739,0.10292
1324.93880,0.10257
1323.01022,0.10232
1321.08163,0.10208
1319.15305,0.10184
1317.22446,0.10157
1315.29587,0.10116
1313.36729,0.10084
1311.43870,0.10061
1309.51011,0.10040
1307.58153,0.10025
1305.65294,0.09997
1303.72435,0.09986
1301.79577,0.09994
1299.86718,0.09998
1297.93860,0.10017
1296.01001,0.10055
1294.08142,0.10109
1292.15284,0.10180
1290.22425,0.10283
1288.29566,0.10416
1286.36708,0.10557
1284.43849,0.10710
1282.50991,0.10880
1280.58132,0.11070
1278.65273,0.11271
1276.72415,0.11480
1274.79556,0.11702
1272.86697,0.11935
1270.93839,0.12193
1269.00980,0.12460
1267.08121,0.12753
1265.15263,0.13096
1263.22404,0.13468
1261.29546,0.13873
1259.36687,0.14335
1257.43828,0.14864
1255.50970,0.15447
1253.58111,0.16077
1251.65252,0.16739
1249.72394,0.17402
1247.79535,0.18053
1245.86677,0.18678
1243.93818,0.19264
1242.00959,0.19811
1240.08101,0.20316
1238.15242,0.20761
1236.22383,0.21182
1234.29525,0.21583
1232.36666,0.21915
1230.43807,0.22217
1228.50949,0.22500
1226.58090,0.22749
1224.65232,0.22962
1222.72373,0.23167
1220.79514,0.23382
1218.86656,0.23562
1216.93797,0.23745
1215.00938,0.23930
1213.08080,0.24086
1211.15221,0.24241
1209.22363,0.24396
1207.29504,0.24533
1205.36645,0.24649
1203.43787,0.24787
1201.50928,0.24918
1199.58069,0.25005
1197.65211,0.25099
1195.72352,0.25222
1193.79493,0.25365
1191.86635,0.25484
1189.93776,0.25591
1188.00918,0.25697
1186.08059,0.25810
1184.15200,0.25938
1182.22342,0.26058
1180.29483,0.26220
1178.36624,0.26431
1176.43766,0.26671
1174.50907,0.26894
1172.58048,0.27082
1170.65190,0.27326
1168.72331,0.27591
1166.79473,0.27825
1164.86614,0.28054
1162.93755,0.28280
1161.00897,0.28456
1159.08038,0.28567
1157.15179,0.28689
1155.22321,0.28803
1153.29462,0.28907
1151.36604,0.29032
1149.43745,0.29177
1147.50886,0.29357
1145.58028,0.29537
1143.65169,0.29732
1141.72310,0.29936
1139.79452,0.30170
1137.86593,0.30475
1135.93734,0.30796
1134.00876,0.31127
1132.08017,0.31449
1130.15159,0.31765
1128.22300,0.32116
1126.29441,0.32504
1124.36583,0.32950
1122.43724,0.33416
1120.50865,0.33864
1118.58007,0.34358
1116.65148,0.34950
1114.72290,0.35607
1112.79431,0.36253
1110.86572,0.36852
1108.93714,0.37473
1107.00855,0.38110
1105.07996,0.38664
1103.15138,0.39127
1101.22279,0.39495
1099.29420,0.39774
1097.36562,0.39963
1095.43703,0.40100
1093.50845,0.40165
1091.57986,0.40092
1089.65127,0.40015
1087.72269,0.39952
1085.79410,0.39838
1083.86551,0.39643
1081.93693,0.39415
1080.00834,0.39207
1078.07976,0.38949
1076.15117,0.38680
1074.22258,0.38370
1072.29400,0.38064
1070.36541,0.37798
1068.43682,0.37469
1066.50824,0.37130
1064.57965,0.36791
1062.65106,0.36437
1060.72248,0.36053
1058.79389,0.35645
1056.86531,0.35217
1054.93672,0.34730
1053.00813,0.34269
1051.07955,0.33835
1049.15096,0.33437
1047.22237,0.33105
1045.29379,0.32789
1043.36520,0.32500
1041.43661,0.32257
1039.50803,0.32028
1037.57944,0.31768
1035.65086,0.31493
1033.72227,0.31211
1031.79368,0.30873
1029.86510,0.30498
1027.93651,0.30095
1026.00792,0.29645
1024.07934,0.29149
1022.15075,0.28641
1020.22217,0.28166
1018.29358,0.27727
1016.36499,0.27321
1014.43641,0.26927
1012.50782,0.26504
1010.57923,0.26059
1008.65065,0.25615
1006.72206,0.25179
1004.79347,0.24728
1002.86489,0.24232
1000.93630,0.23728
999.00772,0.23243
997.07913,0.22766
995.15054,0.22298
993.22196,0.21796
991.29337,0.21249
989.36478,0.20705
987.43620,0.20171
985.50761,0.19613
983.57903,0.19027
981.65044,0.18438
979.72185,0.17823
977.79327,0.17152
975.86468,0.16446
973.93609,0.15765
972.00751,0.15122
970.07892,0.14510
968.15033,0.13917
966.22175,0.13337
964.29316,0.12812
962.36458,0.12347
960.43599,0.11948
958.50740,0.11616
956.57882,0.11315
954.65023,0.11053
952.72164,0.10791
950.79306,0.10514
948.86447,0.10291
946.93589,0.10121
945.00730,0.09975
943.07871,0.09843
941.15013,0.09707
939.22154,0.09581
937.29295,0.09476
935.36437,0.09359
933.43578,0.09210
931.50719,0.09055
929.57861,0.08911
927.65002,0.08780
925.72144,0.08673
923.79285,0.08584
921.86426,0.08518
919.93568,0.08461
918.00709,0.08394
916.07850,0.08292
914.14992,0.08158
912.22133,0.08001
910.29274,0.07736
908.36416,0.07374
906.43557,0.06997
904.50699,0.06584
902.57840,0.06136
900.64981,0.05701
898.72123,0.05296
896.79264,0.04879
894.86405,0.04475
892.93547,0.04153
891.00688,0.03867
889.07830,0.03571
887.14971,0.03254
885.22112,0.02924
883.29254,0.02640
881.36395,0.02432
879.43536,0.02219
877.50678,0.01949
875.57819,0.01672
873.64960,0.01414
871.72102,0.01203
869.79243,0.00985
867.86385,0.00752
865.93526,0.00611
864.00667,0.00489
862.07809,0.00322
860.14950,0.00160
858.22091,0.00046
856.29233,0.00000
854.36374,-0.00028
852.43516,-0.00012
850.50657,0.00063
848.57798,0.00165
846.64940,0.00297
844.72081,0.00455
842.79222,0.00684
840.86364,0.01008
838.93505,0.01365
837.00646,0.01714
835.07788,0.02030
833.14929,0.02317
831.22071,0.02613
829.29212,0.02857
827.36353,0.03030
825.43495,0.03248
823.50636,0.03441
821.57777,0.03518
819.64919,0.03636
817.72060,0.03837
815.79201,0.04037
813.86343,0.04232
811.93484,0.04400
810.00626,0.04598
808.07767,0.04978
806.14908,0.05480
804.22050,0.05918
802.29191,0.06253
800.36332,0.06374
798.43474,0.06231
796.50615,0.05988
794.57757,0.05669
792.64898,0.05329
790.72039,0.05026
788.79181,0.04729
786.86322,0.04538
784.93463,0.04439
783.00605,0.04340
781.07746,0.04179
779.14887,0.03904
777.22029,0.03529
775.29170,0.03075
773.36312,0.02598
771.43453,0.02180
769.50594,0.01908
767.57736,0.01770
765.64877,0.01675
763.72018,0.01590
761.79160,0.01489
759.86301,0.01423
757.93443,0.01444
756.00584,0.01464
754.07725,0.01422
752.14867,0.01367
750.22008,0.01323
748.29149,0.01265
746.36291,0.01167
744.43432,0.01005
742.50573,0.00837
740.57715,0.00708
738.64856,0.00551
736.71998,0.00395
734.79139,0.00292
732.86280,0.00231
730.93422,0.00214
729.00563,0.00241
727.07704,0.00290
725.14846,0.00348
723.21987,0.00388
721.29129,0.00365
719.36270,0.00293
717.43411,0.00156
715.50553,0.00028
713.57694,0.00024
711.64835,0.00013
709.71977,-0.00010
707.79118,0.00087
705.86259,0.00240
703.93401,0.00407
702.00542,0.00589
700.07684,0.00854
698.14825,0.01219
696.21966,0.01482
694.29108,0.01429
692.36249,0.01160
690.43390,0.00923
688.50532,0.00735
686.57673,0.00600
684.64814,0.00534
682.71956,0.00456
680.79097,0.00325
678.86239,0.00224
676.93380,0.00257
675.00521,0.00324
673.07663,0.00317
671.14804,0.00233
669.21945,0.00189
667.29087,0.00263
665.36228,0.00270
663.43370,0.00229
661.50511,0.00214
659.57652,0.00239
657.64794,0.00283
655.71935,0.00280
653.79076,0.00324
651.86218,0.00400
649.93359,0.00430
648.00500,0.00455
646.07642,0.00471
644.14783,0.00489
642.21925,0.00568
640.29066,0.00696
638.36207,0.00808
636.43349,0.00866
634.50490,0.00837
632.57631,0.00853
630.64773,0.00935
628.71914,0.00997
626.79056,0.01075
624.86197,0.01138
622.93338,0.01226
621.00480,0.01286
619.07621,0.01375
617.14762,0.01536
615.21904,0.01512
613.29045,0.01387
611.36186,0.01476
609.43328,0.01758
607.50469,0.01841
605.57611,0.01768
603.64752,0.01931
601.71893,0.02157
599.79035,0.02207
597.86176,0.02221
595.93317,0.02461
594.00459,0.02858
592.07600,0.03126
590.14742,0.03297
588.21883,0.03528
586.29024,0.03818
584.36166,0.04036
582.43307,0.04228
580.50448,0.04459
578.57590,0.04709
576.64731,0.05097
574.71872,0.05548
572.79014,0.05863
570.86155,0.06051
568.93297,0.06269
567.00438,0.06631
565.07579,0.07084
563.14721,0.07393
561.21862,0.07623
559.29003,0.08086
557.36145,0.08437
555.43286,0.08426
553.50427,0.08572
551.57569,0.08898
549.64710,0.09057
547.71852,0.09292
545.78993,0.09754
543.86134,0.10269
541.93276,0.10775
540.00417,0.11157
538.07558,0.11368
536.14700,0.11496
534.21841,0.11740
532.28983,0.11985
530.36124,0.12031
528.43265,0.12184
526.50407,0.12253
524.57548,0.12084
522.64689,0.11902
520.71831,0.11576
518.78972,0.11274
516.86113,0.10978
514.93255,0.10668
513.00396,0.10518
511.07538,0.10311
509.14679,0.10109
507.21820,0.10069
505.28962,0.10161
503.36103,0.10262
501.43244,0.10465
499.50386,0.10980
497.57527,0.11624
495.64669,0.12247
493.71810,0.12890
491.78951,0.13841
489.86093,0.15123
487.93234,0.16227
486.00375,0.17070
484.07517,0.18057
482.14658,0.19181
480.21799,0.20109
478.28941,0.21013
476.36082,0.21990
474.43224,0.22931
472.50365,0.23347
470.57506,0.22989
468.64648,0.22570
466.71789,0.22064
464.78930,0.21144
462.86072,0.19944
460.93213,0.19229
459.00355,0.18705
457.07496,0.17872
455.14637,0.17080
453.21779,0.15929
451.28920,0.14862
449.36061,0.14144
447.43203,0.13869
445.50344,0.13280
443.57485,0.12258
441.64627,0.12254
439.71768,0.11751
437.78910,0.10512
435.86051,0.09794
433.93192,0.09481
432.00334,0.09580
430.07475,0.09651
428.14616,0.08811
426.21758,0.07743
424.28899,0.07980
422.36040,0.07573
420.43182,0.06421
418.50323,0.05883
416.57465,0.05395
414.64606,0.04913
412.71747,0.03951
410.78889,0.03503
408.86030,0.02893
406.93171,0.02571
405.00313,0.02910
403.07454,0.02065
401.14596,0.01069
399.21737,0.00000
