3747.24323,0.00000
3745.31464,0.00075
3743.38605,0.00116
3741.45747,0.00133
3739.52888,0.00181
3737.60030,0.00243
3735.67171,0.00282
3733.74312,0.00305
3731.81454,0.00343
3729.88595,0.00370
3727.95736,0.00437
3726.02878,0.00529
3724.10019,0.00615
3722.17161,0.00724
3720.24302,0.00848
3718.31443,0.01016
3716.38585,0.01221
3714.45726,0.01465
3712.52867,0.01738
3710.60009,0.01999
3708.67150,0.02274
3706.74291,0.02574
3704.81433,0.02909
3702.88574,0.03235
3700.95716,0.03509
3699.02857,0.03739
3697.09998,0.03886
3695.17140,0.03968
3693.24281,0.04013
3691.31422,0.04080
3689.38564,0.04204
3687.45705,0.04354
3685.52846,0.04548
3683.59988,0.04787
3681.67129,0.05075
3679.74271,0.05398
3677.81412,0.05750
3675.88553,0.06149
3673.95695,0.06545
3672.02836,0.06915
3670.09977,0.07347
3668.17119,0.07793
3666.24260,0.08183
3664.31402,0.08574
3662.38543,0.08982
3660.45684,0.09384
3658.52826,0.09764
3656.59967,0.10126
3654.67108,0.10461
3652.74250,0.10796
3650.81391,0.11139
3648.88532,0.11437
3646.95674,0.11724
3645.02815,0.12008
3643.09957,0.12267
3641.17098,0.12526
3639.24239,0.12791
3637.31381,0.13063
3635.38522,0.13337
3633.45663,0.13615
3631.52805,0.13895
3629.59946,0.14146
3627.67088,0.14336
3625.74229,0.14480
3623.81370,0.14605
3621.88512,0.14703
3619.95653,0.14732
3618.02794,0.14654
3616.09936,0.14533
3614.17077,0.14436
3612.24218,0.14376
3610.31360,0.14332
3608.38501,0.14282
3606.45643,0.14231
3604.52784,0.14189
3602.59925,0.14161
3600.67067,0.14148
3598.74208,0.14145
3596.81349,0.14152
3594.88491,0.14166
3592.95632,0.14164
3591.02774,0.14167
3589.09915,0.14204
3587.17056,0.14254
3585.24198,0.14298
3583.31339,0.14346
3581.38480,0.14399
3579.45622,0.14471
3577.52763,0.14578
3575.59904,0.14679
3573.67046,0.14770
3571.74187,0.14868
3569.81329,0.14965
3567.88470,0.15084
3565.95611,0.15211
3564.02753,0.15314
3562.09894,0.15416
3560.17035,0.15525
3558.24177,0.15640
3556.31318,0.15762
3554.38459,0.15888
3552.45601,0.16009
3550.52742,0.16123
3548.59884,0.16232
3546.67025,0.16342
3544.74166,0.16468
3542.81308,0.16592
3540.88449,0.16704
3538.95590,0.16802
3537.02732,0.16912
3535.09873,0.17037
3533.17015,0.17139
3531.24156,0.17254
3529.31297,0.17383
3527.38439,0.17495
3525.45580,0.17612
3523.52721,0.17718
3521.59863,0.17812
3519.67004,0.17907
3517.74145,0.18005
3515.81287,0.18108
3513.88428,0.18220
3511.95570,0.18342
3510.02711,0.18458
3508.09852,0.18556
3506.16994,0.18645
3504.24135,0.18760
3502.31276,0.18885
3500.38418,0.18976
3498.45559,0.19063
3496.52701,0.19160
3494.59842,0.19272
3492.66983,0.19385
3490.74125,0.19471
3488.81266,0.19560
3486.88407,0.19673
3484.95549,0.19773
3483.02690,0.19848
3481.09831,0.19919
3479.16973,0.19992
3477.24114,0.20083
3475.31256,0.20180
3473.38397,0.20262
3471.45538,0.20331
3469.52680,0.20405
3467.59821,0.20488
3465.66962,0.20554
3463.74104,0.20619
3461.81245,0.20706
3459.88386,0.20786
3457.95528,0.20850
3456.02669,0.20928
3454.09811,0.21005
3452.16952,0.21066
3450.24093,0.21125
3448.31235,0.21184
3446.38376,0.21259
3444.45517,0.21318
3442.52659,0.21370
3440.59800,0.21451
3438.66942,0.21522
3436.74083,0.21574
3434.81224,0.21616
3432.88366,0.21665
3430.95507,0.21721
3429.02648,0.21770
3427.09790,0.21827
3425.16931,0.21894
3423.24072,0.21949
3421.31214,0.21982
3419.38355,0.22023
3417.45497,0.22068
3415.52638,0.22116
3413.59779,0.22156
3411.66921,0.22183
3409.74062,0.22233
3407.81203,0.22275
3405.88345,0.22291
3403.95486,0.22312
3402.02628,0.22343
3400.09769,0.22377
3398.16910,0.22404
3396.24052,0.22413
3394.31193,0.22425
3392.38334,0.22473
3390.45476,0.22526
3388.52617,0.22553
3386.59758,0.22548
3384.66900,0.22561
3382.74041,0.22606
3380.81183,0.22620
3378.88324,0.22631
3376.95465,0.22651
3375.02607,0.22662
3373.09748,0.22678
3371.16889,0.22686
3369.24031,0.22706
3367.31172,0.22723
3365.38314,0.22726
3363.45455,0.22740
3361.52596,0.22760
3359.59738,0.22774
3357.66879,0.22784
3355.74020,0.22795
3353.81162,0.22799
3351.88303,0.22815
3349.95444,0.22830
3348.02586,0.22821
3346.09727,0.22821
3344.16869,0.22835
3342.24010,0.22838
3340.31151,0.22834
3338.38293,0.22838
3336.45434,0.22849
3334.52575,0.22862
3332.59717,0.22853
3330.66858,0.22831
3328.73999,0.22830
3326.81141,0.22815
3324.88282,0.22795
3322.95424,0.22798
3321.02565,0.22787
3319.09706,0.22768
3317.16848,0.22759
3315.23989,0.22755
3313.31130,0.22736
3311.38272,0.22708
3309.45413,0.22709
3307.52555,0.22722
3305.59696,0.22715
3303.66837,0.22697
3301.73979,0.22663
3299.81120,0.22619
3297.88261,0.22584
3295.95403,0.22558
3294.02544,0.22529
3292.09685,0.22500
3290.16827,0.22477
3288.23968,0.22445
3286.31110,0.22407
3284.38251,0.22354
3282.45392,0.22302
3280.52534,0.22267
3278.59675,0.22207
3276.66816,0.22134
3274.73958,0.22084
3272.81099,0.22021
3270.88241,0.21933
3268.95382,0.21849
3267.02523,0.21772
3265.09665,0.21688
3263.16806,0.21597
3261.23947,0.21508
3259.31089,0.21427
3257.38230,0.21337
3255.45371,0.21237
3253.52513,0.21132
3251.59654,0.21022
3249.66796,0.20939
3247.73937,0.20875
3245.81078,0.20798
3243.88220,0.20702
3241.95361,0.20603
3240.02502,0.20507
3238.09644,0.20422
3236.16785,0.20370
3234.23927,0.20302
3232.31068,0.20202
3230.38209,0.20117
3228.45351,0.20030
3226.52492,0.19947
3224.59633,0.19877
3222.66775,0.19805
3220.73916,0.19724
3218.81057,0.19640
3216.88199,0.19557
3214.95340,0.19464
3213.02482,0.19385
3211.09623,0.19332
3209.16764,0.19257
3207.23906,0.19162
3205.31047,0.19086
3203.38188,0.19009
3201.45330,0.18923
3199.52471,0.18842
3197.59612,0.18753
3195.66754,0.18660
3193.73895,0.18574
3191.81037,0.18483
3189.88178,0.18392
3187.95319,0.18316
3186.02461,0.18241
3184.09602,0.18148
3182.16743,0.18061
3180.23885,0.17979
3178.31026,0.17883
3176.38168,0.17793
3174.45309,0.17702
3172.52450,0.17620
3170.59592,0.17532
3168.66733,0.17437
3166.73874,0.17364
3164.81016,0.17281
3162.88157,0.17193
3160.95298,0.17106
3159.02440,0.17016
3157.09581,0.16946
3155.16723,0.16862
3153.23864,0.16769
3151.31005,0.16693
3149.38147,0.16628
3147.45288,0.16558
3145.52429,0.16473
3143.59571,0.16403
3141.66712,0.16335
3139.73854,0.16256
3137.80995,0.16183
3135.88136,0.16121
3133.95278,0.16071
3132.02419,0.16014
3130.09560,0.15948
3128.16702,0.15888
3126.23843,0.15836
3124.30984,0.15773
3122.38126,0.15708
3120.45267,0.15664
3118.52409,0.15625
3116.59550,0.15579
3114.66691,0.15525
3112.73833,0.15481
3110.80974,0.15440
3108.88115,0.15387
3106.95257,0.15330
3105.02398,0.15278
3103.09540,0.15249
3101.16681,0.15211
3099.23822,0.15158
3097.30964,0.15115
3095.38105,0.15066
3093.45246,0.15014
3091.52388,0.14967
3089.59529,0.14926
3087.66670,0.14873
3085.73812,0.14822
3083.80953,0.14797
3081.88095,0.14762
3079.95236,0.14697
3078.02377,0.14626
3076.09519,0.14578
3074.16660,0.14541
3072.23801,0.14483
3070.30943,0.14411
3068.38084,0.14335
3066.45225,0.14272
3064.52367,0.14216
3062.59508,0.14157
3060.66650,0.14104
3058.73791,0.14034
3056.80932,0.13946
3054.88074,0.13863
3052.95215,0.13783
3051.02356,0.13714
3049.09498,0.13647
3047.16639,0.13572
3045.23781,0.13506
3043.30922,0.13451
3041.38063,0.13381
3039.45205,0.13308
3037.52346,0.13260
3035.59487,0.13215
3033.66629,0.13152
3031.73770,0.13100
3029.80911,0.13055
3027.88053,0.13000
3025.95194,0.12953
3024.02336,0.12912
3022.09477,0.12865
3020.16618,0.12827
3018.23760,0.12807
3016.30901,0.12792
3014.38042,0.12786
3012.45184,0.12787
3010.52325,0.12788
3008.59467,0.12803
3006.66608,0.12831
3004.73749,0.12858
3002.80891,0.12886
3000.88032,0.12926
2998.95173,0.12968
2997.02315,0.13020
2995.09456,0.13104
2993.16597,0.13201
2991.23739,0.13302
2989.30880,0.13400
2987.38022,0.13520
2985.45163,0.13668
2983.52304,0.13814
2981.59446,0.13993
2979.66587,0.14192
2977.73728,0.14385
2975.80870,0.14592
2973.88011,0.14808
2971.95153,0.15034
2970.02294,0.15270
2968.09435,0.15518
2966.16577,0.15772
2964.23718,0.16018
2962.30859,0.16269
2960.38001,0.16517
2958.45142,0.16731
2956.52283,0.16905
2954.59425,0.17072
2952.66566,0.17255
2950.73708,0.17459
2948.80849,0.17678
2946.87990,0.17937
2944.95132,0.18284
2943.02273,0.18695
2941.09414,0.19141
2939.16556,0.19637
2937.23697,0.20178
2935.30838,0.20716
2933.37980,0.21230
2931.45121,0.21729
2929.52263,0.22188
2927.59404,0.22590
2925.66545,0.22906
2923.73687,0.23087
2921.80828,0.23115
2919.87969,0.22947
2917.95111,0.22525
2916.02252,0.21795
2914.09394,0.20825
2912.16535,0.19854
2910.23676,0.19045
2908.30818,0.18412
2906.37959,0.17925
2904.45100,0.17511
2902.52242,0.17138
2900.59383,0.16822
2898.66524,0.16531
2896.73666,0.16238
2894.80807,0.15955
2892.87949,0.15680
2890.95090,0.15407
2889.02231,0.15148
2887.09373,0.14921
2885.16514,0.14721
2883.23655,0.14555
2881.30797,0.14435
2879.37938,0.14345
2877.45080,0.14298
2875.52221,0.14289
2873.59362,0.14301
2871.66504,0.14324
2869.73645,0.14347
2867.80786,0.14399
2865.87928,0.14523
2863.95069,0.14750
2862.02210,0.15111
2860.09352,0.15611
2858.16493,0.16210
2856.23635,0.16844
2854.30776,0.17379
2852.37917,0.17636
2850.45059,0.17434
2848.52200,0.16651
2846.59341,0.15473
2844.66483,0.14263
2842.73624,0.13210
2840.80766,0.12359
2838.87907,0.11688
2836.95048,0.11144
2835.02190,0.10695
2833.09331,0.10323
2831.16472,0.10017
2829.23614,0.09756
2827.30755,0.09523
2825.37896,0.09319
2823.45038,0.09140
2821.52179,0.08969
2819.59321,0.08813
2817.66462,0.08678
2815.73603,0.08545
2813.80745,0.08416
2811.87886,0.08290
2809.95027,0.08174
2808.02169,0.08070
2806.09310,0.07974
2804.16451,0.07889
2802.23593,0.07797
2800.30734,0.07705
2798.37876,0.07627
2796.45017,0.07551
2794.52158,0.07475
2792.59300,0.07396
2790.66441,0.07308
2788.73582,0.07227
2786.80724,0.07170
2784.87865,0.07110
2782.95007,0.07032
2781.02148,0.06958
2779.09289,0.06896
2777.16431,0.06839
2775.23572,0.06783
2773.30713,0.06731
2771.37855,0.06680
2769.44996,0.06628
2767.52137,0.06578
2765.59279,0.06525
2763.66420,0.06480
2761.73562,0.06443
2759.80703,0.06395
2757.87844,0.06353
2755.94986,0.06320
2754.02127,0.06280
2752.09268,0.06241
2750.16410,0.06213
2748.23551,0.06179
2746.30693,0.06126
2744.37834,0.06082
2742.44975,0.06050
2740.52117,0.06014
2738.59258,0.05983
2736.66399,0.05957
2734.73541,0.05924
2732.80682,0.05878
2730.87823,0.05828
2728.94965,0.05783
2727.02106,0.05747
2725.09248,0.05711
2723.16389,0.05675
2721.23530,0.05638
2719.30672,0.05588
2717.37813,0.05540
2715.44954,0.05495
2713.52096,0.05447
2711.59237,0.05407
2709.66379,0.05370
2707.73520,0.05337
2705.80661,0.05305
2703.87803,0.05271
2701.94944,0.05229
2700.02085,0.05188
2698.09227,0.05157
2696.16368,0.05118
2694.23509,0.05083
2692.30651,0.05061
2690.37792,0.05043
2688.44934,0.05019
2686.52075,0.04988
2684.59216,0.04964
2682.66358,0.04936
2680.73499,0.04905
2678.80640,0.04872
2676.87782,0.04838
2674.94923,0.04811
2673.02064,0.04779
2671.09206,0.04746
2669.16347,0.04718
2667.23489,0.04690
2665.30630,0.04652
2663.37771,0.04612
2661.44913,0.04579
2659.52054,0.04549
2657.59195,0.04522
2655.66337,0.04493
2653.73478,0.04466
2651.80620,0.04442
2649.87761,0.04416
2647.94902,0.04392
2646.02044,0.04357
2644.09185,0.04315
2642.16326,0.04288
2640.23468,0.04256
2638.30609,0.04226
2636.37750,0.04210
2634.44892,0.04178
2632.52033,0.04146
2630.59175,0.04126
2628.66316,0.04097
2626.73457,0.04061
2624.80599,0.04026
2622.87740,0.03992
2620.94881,0.03959
2619.02023,0.03935
2617.09164,0.03911
2615.16306,0.03871
2613.23447,0.03834
2611.30588,0.03803
2609.37730,0.03772
2607.44871,0.03739
2605.52012,0.03709
2603.59154,0.03677
2601.66295,0.03640
2599.73436,0.03611
2597.80578,0.03576
2595.87719,0.03541
2593.94861,0.03510
2592.02002,0.03482
2590.09143,0.03455
2588.16285,0.03423
2586.23426,0.03394
2584.30567,0.03363
2582.37709,0.03328
2580.44850,0.03294
2578.51991,0.03265
2576.59133,0.03236
2574.66274,0.03200
2572.73416,0.03173
2570.80557,0.03155
2568.87698,0.03132
2566.94840,0.03106
2565.01981,0.03074
2563.09122,0.03046
2561.16264,0.03028
2559.23405,0.03002
2557.30547,0.02970
2555.37688,0.02944
2553.44829,0.02924
2551.51971,0.02902
2549.59112,0.02870
2547.66253,0.02838
2545.73395,0.02819
2543.80536,0.02798
2541.87677,0.02769
2539.94819,0.02746
2538.01960,0.02725
2536.09102,0.02701
2534.16243,0.02674
2532.23384,0.02646
2530.30526,0.02623
2528.37667,0.02607
2526.44808,0.02584
2524.51950,0.02558
2522.59091,0.02537
2520.66233,0.02513
2518.73374,0.02486
2516.80515,0.02465
2514.87657,0.02449
2512.94798,0.02417
2511.01939,0.02379
2509.09081,0.02357
2507.16222,0.02335
2505.23363,0.02311
2503.30505,0.02293
2501.37646,0.02272
2499.44788,0.02245
2497.51929,0.02216
2495.59070,0.02191
2493.66212,0.02160
2491.73353,0.02129
2489.80494,0.02107
2487.87636,0.02086
2485.94777,0.02066
2484.01919,0.02046
2482.09060,0.02021
2480.16201,0.01987
2478.23343,0.01954
2476.30484,0.01933
2474.37625,0.01902
2472.44767,0.01872
2470.51908,0.01858
2468.59049,0.01847
2466.66191,0.01822
2464.73332,0.01787
2462.80474,0.01761
2460.87615,0.01735
2458.94756,0.01708
2457.01898,0.01684
2455.09039,0.01660
2453.16180,0.01641
2451.23322,0.01616
2449.30463,0.01584
2447.37604,0.01559
2445.44746,0.01542
2443.51887,0.01515
2441.59029,0.01486
2439.66170,0.01469
2437.73311,0.01445
2435.80453,0.01418
2433.87594,0.01393
2431.94735,0.01367
2430.01877,0.01348
2428.09018,0.01328
2426.16160,0.01303
2424.23301,0.01278
2422.30442,0.01253
2420.37584,0.01227
2418.44725,0.01203
2416.51866,0.01176
2414.59008,0.01150
2412.66149,0.01130
2410.73290,0.01102
2408.80432,0.01078
2406.87573,0.01061
2404.94715,0.01031
2403.01856,0.01002
2401.08997,0.00984
2399.16139,0.00970
2397.23280,0.00948
2395.30421,0.00920
2393.37563,0.00891
2391.44704,0.00859
2389.51846,0.00836
2387.58987,0.00823
2385.66128,0.00802
2383.73270,0.00775
2381.80411,0.00757
2379.87552,0.00745
2377.94694,0.00731
2376.01835,0.00719
2374.08976,0.00711
2372.16118,0.00702
2370.23259,0.00690
2368.30401,0.00678
2366.37542,0.00664
2364.44683,0.00649
2362.51825,0.00627
2360.58966,0.00599
2358.66107,0.00585
2356.73249,0.00568
2354.80390,0.00540
2352.87532,0.00509
2350.94673,0.00486
2349.01814,0.00474
2347.08956,0.00473
2345.16097,0.00479
2343.23238,0.00480
2341.30380,0.00482
2339.37521,0.00478
2337.44662,0.00456
2335.51804,0.00432
2333.58945,0.00408
2331.66087,0.00390
2329.73228,0.00375
2327.80369,0.00357
2325.87511,0.00340
2323.94652,0.00324
2322.01793,0.00314
2320.08935,0.00302
2318.16076,0.00281
2316.23217,0.00265
2314.30359,0.00259
2312.37500,0.00250
2310.44642,0.00228
2308.51783,0.00211
2306.58924,0.00200
2304.66066,0.00185
2302.73207,0.00175
2300.80348,0.00161
2298.87490,0.00152
2296.94631,0.00153
2295.01773,0.00148
2293.08914,0.00138
2291.16055,0.00127
2289.23197,0.00118
2287.30338,0.00112
2285.37479,0.00103
2283.44621,0.00096
2281.51762,0.00092
2279.58903,0.00086
2277.66045,0.00079
2275.73186,0.00077
2273.80328,0.00069
2271.87469,0.00063
2269.94610,0.00068
2268.01752,0.00061
2266.08893,0.00053
2264.16034,0.00057
2262.23176,0.00053
2260.30317,0.00049
2258.37459,0.00043
2256.44600,0.00034
2254.51741,0.00029
2252.58883,0.00024
2250.66024,0.00032
2248.73165,0.00039
2246.80307,0.00026
2244.87448,0.00018
2242.94589,0.00022
2241.01731,0.00024
2239.08872,0.00021
2237.16014,0.00017
2235.23155,0.00016
2233.30296,0.00021
2231.37438,0.00028
2229.44579,0.00020
2227.51720,0.00010
2225.58862,0.00009
2223.66003,-0.00000
2221.73145,-0.00008
2219.80286,-0.00008
2217.87427,-0.00003
2215.94569,0.00004
2214.01710,0.00000
2212.08851,-0.00011
2210.15993,-0.00016
2208.23134,-0.00019
2206.30275,-0.00019
2204.37417,-0.00010
2202.44558,-0.00001
2200.51700,0.00001
2198.58841,-0.00003
2196.65982,-0.00010
2194.73124,-0.00007
2192.80265,0.00002
2190.87406,0.00008
2188.94548,0.00006
2187.01689,0.00004
2185.08830,0.00007
2183.15972,0.00014
2181.23113,0.00022
2179.30255,0.00022
2177.37396,0.00017
2175.44537,0.00019
2173.51679,0.00021
2171.58820,0.00007
2169.65961,0.00000
2167.73103,0.00020
2165.80244,0.00037
2163.87386,0.00033
2161.94527,0.00034
2160.01668,0.00033
2158.08810,0.00029
2156.15951,0.00037
2154.23092,0.00040
2152.30234,0.00035
2150.37375,0.00035
2148.44516,0.00039
2146.51658,0.00039
2144.58799,0.00037
2142.65941,0.00038
2140.73082,0.00034
2138.80223,0.00034
2136.87365,0.00035
2134.94506,0.00031
2133.01647,0.00032
2131.08789,0.00027
2129.15930,0.00018
2127.23072,0.00013
2125.30213,0.00010
2123.37354,0.00020
2121.44496,0.00028
2119.51637,0.00019
2117.58778,0.00008
2115.65920,0.00003
2113.73061,0.00000
2111.80202,0.00004
2109.87344,0.00012
2107.94485,0.00011
2106.01627,0.00009
2104.08768,0.00004
2102.15909,-0.00001
2100.23051,-0.00001
2098.30192,0.00000
2096.37333,0.00005
2094.44475,0.00004
2092.51616,-0.00008
2090.58758,-0.00015
2088.65899,-0.00010
2086.73040,0.00001
2084.80182,0.00003
2082.87323,-0.00000
2080.94464,0.00000
2079.01606,0.00001
2077.08747,-0.00002
2075.15888,-0.00009
2073.23030,-0.00011
2071.30171,-0.00010
2069.37313,-0.00011
2067.44454,-0.00014
2065.51595,-0.00013
2063.58737,-0.00015
2061.65878,-0.00018
2059.73019,-0.00013
2057.80161,-0.00009
2055.87302,-0.00003
2053.94443,0.00008
2052.01585,0.00017
2050.08726,0.00024
2048.15868,0.00032
2046.23009,0.00041
2044.30150,0.00051
2042.37292,0.00067
2040.44433,0.00089
2038.51574,0.00112
2036.58716,0.00130
2034.65857,0.00142
2032.72999,0.00154
2030.80140,0.00169
2028.87281,0.00185
2026.94423,0.00200
2025.01564,0.00207
2023.08705,0.00206
2021.15847,0.00208
2019.22988,0.00215
2017.30129,0.00222
2015.37271,0.00235
2013.44412,0.00256
2011.51554,0.00269
2009.58695,0.00283
2007.65836,0.00303
2005.72978,0.00316
2003.80119,0.00321
2001.87260,0.00325
1999.94402,0.00324
1998.01543,0.00323
1996.08685,0.00327
1994.15826,0.00329
1992.22967,0.00318
1990.30109,0.00300
1988.37250,0.00293
1986.44391,0.00294
1984.51533,0.00290
1982.58674,0.00277
1980.65815,0.00268
1978.72957,0.00267
1976.80098,0.00260
1974.87240,0.00253
1972.94381,0.00249
1971.01522,0.00237
1969.08664,0.00219
1967.15805,0.00199
1965.22946,0.00180
1963.30088,0.00155
1961.37229,0.00129
1959.44371,0.00116
1957.51512,0.00110
1955.58653,0.00104
1953.65795,0.00095
1951.72936,0.00078
1949.80077,0.00069
1947.87219,0.00067
1945.94360,0.00058
1944.01501,0.00053
1942.08643,0.00050
1940.15784,0.00039
1938.22926,0.00030
1936.30067,0.00021
1934.37208,0.00013
1932.44350,0.00007
1930.51491,0.00005
1928.58632,0.00008
1926.65774,0.00003
1924.72915,0.00000
1922.80056,-0.00004
1920.87198,-0.00001
1918.94339,0.00021
1917.01481,0.00042
1915.08622,0.00060
1913.15763,0.00094
1911.22905,0.00136
1909.30046,0.00176
1907.37187,0.00209
1905.44329,0.00249
1903.51470,0.00306
1901.58612,0.00354
1899.65753,0.00388
1897.72894,0.00427
1895.80036,0.00484
1893.87177,0.00534
1891.94318,0.00572
1890.01460,0.00608
1888.08601,0.00633
1886.15742,0.00655
1884.22884,0.00673
1882.30025,0.00695
1880.37167,0.00711
1878.44308,0.00715
1876.51449,0.00724
1874.58591,0.00726
1872.65732,0.00730
1870.72873,0.00735
1868.80015,0.00728
1866.87156,0.00703
1864.94298,0.00667
1863.01439,0.00624
1861.08580,0.00567
1859.15722,0.00509
1857.22863,0.00444
1855.30004,0.00375
1853.37146,0.00311
1851.44287,0.00242
1849.51428,0.00182
1847.58570,0.00137
1845.65711,0.00110
1843.72853,0.00076
1841.79994,0.00039
1839.87135,0.00017
1837.94277,0.00000
1836.01418,-0.00024
1834.08559,-0.00047
1832.15701,-0.00048
1830.22842,-0.00035
1828.29984,-0.00028
1826.37125,-0.00004
1824.44266,0.00024
1822.51408,0.00052
1820.58549,0.00092
1818.65690,0.00138
1816.72832,0.00195
1814.79973,0.00266
1812.87114,0.00345
1810.94256,0.00437
1809.01397,0.00539
1807.08539,0.00651
1805.15680,0.00777
1803.22821,0.00917
1801.29963,0.01073
1799.37104,0.01236
1797.44245,0.01410
1795.51387,0.01600
1793.58528,0.01809
1791.65669,0.02027
1789.72811,0.02237
1787.79952,0.02458
1785.87094,0.02694
1783.94235,0.02939
1782.01376,0.03176
1780.08518,0.03413
1778.15659,0.03652
1776.22800,0.03878
1774.29942,0.04115
1772.37083,0.04350
1770.44225,0.04560
1768.51366,0.04761
1766.58507,0.04955
1764.65649,0.05154
1762.72790,0.05377
1760.79931,0.05617
1758.87073,0.05856
1756.94214,0.06122
1755.01355,0.06418
1753.08497,0.06740
1751.15638,0.07103
1749.22780,0.07481
1747.29921,0.07880
1745.37062,0.08313
1743.44204,0.08783
1741.51345,0.09262
1739.58486,0.09735
1737.65628,0.10163
1735.72769,0.10555
1733.79911,0.10929
1731.87052,0.11221
1729.94193,0.11502
1728.01335,0.11791
1726.08476,0.12069
1724.15617,0.12357
1722.22759,0.12644
1720.29900,0.12960
1718.37041,0.13279
1716.44183,0.13571
1714.51324,0.13825
1712.58466,0.14052
1710.65607,0.14285
1708.72748,0.14488
1706.79890,0.14681
1704.87031,0.14877
1702.94172,0.15093
1701.01314,0.15364
1699.08455,0.15638
1697.15596,0.15896
1695.22738,0.16157
1693.29879,0.16399
1691.37021,0.16658
1689.44162,0.16942
1687.51303,0.17228
1685.58445,0.17539
1683.65586,0.17839
1681.72727,0.18109
1679.79869,0.18370
1677.87010,0.18636
1675.94152,0.18924
1674.01293,0.19184
1672.08434,0.19436
1670.15576,0.19671
1668.22717,0.19870
1666.29858,0.20054
1664.37000,0.20231
1662.44141,0.20383
1660.51282,0.20485
1658.58424,0.20565
1656.65565,0.20621
1654.72707,0.20686
1652.79848,0.20694
1650.86989,0.20625
1648.94131,0.20612
1647.01272,0.20607
1645.08413,0.20578
1643.15555,0.20548
1641.22696,0.20542
1639.29838,0.20550
1637.36979,0.20577
1635.44120,0.20583
1633.51262,0.20518
1631.58403,0.20458
1629.65544,0.20378
1627.72686,0.20259
1625.79827,0.20087
1623.86968,0.19886
1621.94110,0.19660
1620.01251,0.19421
1618.08393,0.19219
1616.15534,0.18989
1614.22675,0.18767
1612.29817,0.18560
1610.36958,0.18352
1608.44099,0.18161
1606.51241,0.17982
1604.58382,0.17824
1602.65524,0.17636
1600.72665,0.17450
1598.79806,0.17282
1596.86948,0.17129
1594.94089,0.16982
1593.01230,0.16813
1591.08372,0.16629
1589.15513,0.16429
1587.22654,0.16231
1585.29796,0.16015
1583.36937,0.15800
1581.44079,0.15591
1579.51220,0.15408
1577.58361,0.15267
1575.65503,0.15092
1573.72644,0.14931
1571.79785,0.14826
1569.86927,0.14752
1567.94068,0.14688
1566.01209,0.14637
1564.08351,0.14613
1562.15492,0.14627
1560.22634,0.14675
1558.29775,0.14662
1556.36916,0.14633
1554.44058,0.14646
1552.51199,0.14650
1550.58340,0.14644
1548.65482,0.14634
1546.72623,0.14632
1544.79765,0.14609
1542.86906,0.14571
1540.94047,0.14539
1539.01189,0.14439
1537.08330,0.14325
1535.15471,0.14231
1533.22613,0.14121
1531.29754,0.13995
1529.36895,0.13869
1527.44037,0.13746
1525.51178,0.13621
1523.58320,0.13544
1521.65461,0.13501
1519.72602,0.13467
1517.79744,0.13438
1515.86885,0.13353
1513.94026,0.13186
1512.01168,0.12959
1510.08309,0.12704
1508.15451,0.12447
1506.22592,0.12114
1504.29733,0.11709
1502.36875,0.11327
1500.44016,0.10960
1498.51157,0.10591
1496.58299,0.10215
1494.65440,0.09859
1492.72581,0.09572
1490.79723,0.09324
1488.86864,0.09095
1486.94006,0.08916
1485.01147,0.08802
1483.08288,0.08770
1481.15430,0.08796
1479.22571,0.08897
1477.29712,0.09122
1475.36854,0.09463
1473.43995,0.09958
1471.51137,0.10567
1469.58278,0.11165
1467.65419,0.11674
1465.72561,0.11981
1463.79702,0.12118
1461.86843,0.12185
1459.93985,0.12255
1458.01126,0.12373
1456.08267,0.12438
1454.15409,0.12423
1452.22550,0.12389
1450.29692,0.12354
1448.36833,0.12314
1446.43974,0.12264
1444.51116,0.12216
1442.58257,0.12174
1440.65398,0.12149
1438.72540,0.12145
1436.79681,0.12161
1434.86822,0.12157
1432.93964,0.12147
1431.01105,0.12149
1429.08247,0.12152
1427.15388,0.12175
1425.22529,0.12209
1423.29671,0.12249
1421.36812,0.12286
1419.43953,0.12315
1417.51095,0.12313
1415.58236,0.12291
1413.65378,0.12265
1411.72519,0.12231
1409.79660,0.12205
1407.86802,0.12168
1405.93943,0.12122
1404.01084,0.12055
1402.08226,0.11977
1400.15367,0.11902
1398.22508,0.11786
1396.29650,0.11668
1394.36791,0.11566
1392.43933,0.11466
1390.51074,0.11393
1388.58215,0.11349
1386.65357,0.11302
1384.72498,0.11266
1382.79639,0.11289
1380.86781,0.11335
1378.93922,0.11348
1377.01064,0.11309
1375.08205,0.11229
1373.15346,0.11120
1371.22488,0.10987
1369.29629,0.10845
1367.36770,0.10691
1365.43912,0.10553
1363.51053,0.10423
1361.58194,0.10295
1359.65336,0.10181
1357.72477,0.10052
1355.79619,0.09939
1353.86760,0.09847
1351.93901,0.09756
1350.01043,0.09685
1348.08184,0.09619
1346.15325,0.09549
1344.22467,0.09485
1342.29608,0.09434
1340.36750,0.09393
1338.43891,0.09349
1336.51032,0.09303
1334.58174,0.09249
1332.65315,0.09197
1330.72456,0.09163
1328.79598,0.09135
1326.86739,0.09104
1324.93880,0.09063
1323.01022,0.09026
1321.08163,0.09002
1319.15305,0.08972
1317.22446,0.08929
1315.29587,0.08890
1313.36729,0.08865
1311.43870,0.08834
1309.51011,0.08790
1307.58153,0.08762
1305.65294,0.08756
1303.72435,0.08753
1301.79577,0.08764
1299.86718,0.08779
1297.93860,0.08794
1296.01001,0.08829
1294.08142,0.08879
1292.15284,0.08942
1290.22425,0.09034
1288.29566,0.09155
1286.36708,0.09289
1284.43849,0.09438
1282.50991,0.09597
1280.58132,0.09763
1278.65273,0.09950
1276.72415,0.10160
1274.79556,0.10367
1272.86697,0.10579
1270.93839,0.10810
1269.00980,0.11048
1267.08121,0.11297
1265.15263,0.11558
1263.22404,0.11846
1261.29546,0.12192
1259.36687,0.12592
1257.43828,0.13039
1255.50970,0.13542
1253.58111,0.14093
1251.65252,0.14669
1249.72394,0.15256
1247.79535,0.15839
1245.86677,0.16396
1243.93818,0.16918
1242.00959,0.17394
1240.08101,0.17849
1238.15242,0.18288
1236.22383,0.18668
1234.29525,0.19016
1232.36666,0.19336
1230.43807,0.19607
1228.50949,0.19867
1226.58090,0.20122
1224.65232,0.20363
1222.72373,0.20593
1220.79514,0.20799
1218.86656,0.20988
1216.93797,0.21167
1215.00938,0.21337
1213.08080,0.21520
1211.15221,0.21710
1209.22363,0.21884
1207.29504,0.22057
1205.36645,0.22223
1203.43787,0.22375
1201.50928,0.22512
1199.58069,0.22613
1197.65211,0.22715
1195.72352,0.22840
1193.79493,0.22973
1191.86635,0.23112
1189.93776,0.23255
1188.00918,0.23411
1186.08059,0.23559
1184.15200,0.23710
1182.22342,0.23898
1180.29483,0.24092
1178.36624,0.24301
1176.43766,0.24544
1174.50907,0.24793
1172.58048,0.25044
1170.65190,0.25291
1168.72331,0.25539
1166.79473,0.25826
1164.86614,0.26117
1162.93755,0.26346
1161.00897,0.26498
1159.08038,0.26619
1157.15179,0.26743
1155.22321,0.26844
1153.29462,0.26944
1151.36604,0.27073
1149.43745,0.27233
1147.50886,0.27436
1145.58028,0.27681
1143.65169,0.27953
1141.72310,0.28206
1139.79452,0.28461
1137.86593,0.28798
1135.93734,0.29187
1134.00876,0.29584
1132.08017,0.29977
1130.15159,0.30368
1128.22300,0.30807
1126.29441,0.31327
1124.36583,0.31862
1122.43724,0.32369
1120.50865,0.32902
1118.58007,0.33470
1116.65148,0.34073
1114.72290,0.34734
1112.79431,0.35419
1110.86572,0.36064
1108.93714,0.36642
1107.00855,0.37213
1105.07996,0.37733
1103.15138,0.38126
1101.22279,0.38462
1099.29420,0.38735
1097.36562,0.38874
1095.43703,0.38907
1093.50845,0.38901
1091.57986,0.38881
1089.65127,0.38793
1087.72269,0.38669
1085.79410,0.38524
1083.86551,0.38312
1081.93693,0.38096
1080.00834,0.37884
1078.07976,0.37679
1076.15117,0.37474
1074.22258,0.37220
1072.29400,0.36950
1070.36541,0.36703
1068.43682,0.36545
1066.50824,0.36388
1064.57965,0.36156
1062.65106,0.35925
1060.72248,0.35650
1058.79389,0.35338
1056.86531,0.35022
1054.93672,0.34717
1053.00813,0.34432
1051.07955,0.34148
1049.15096,0.33911
1047.22237,0.33747
1045.29379,0.33664
1043.36520,0.33641
1041.43661,0.33640
1039.50803,0.33630
1037.57944,0.33605
1035.65086,0.33580
1033.72227,0.33501
1031.79368,0.33331
1029.86510,0.33051
1027.93651,0.32705
1026.00792,0.32371
1024.07934,0.32000
1022.15075,0.31584
1020.22217,0.31186
1018.29358,0.30811
1016.36499,0.30466
1014.43641,0.30125
1012.50782,0.29751
1010.57923,0.29372
1008.65065,0.28997
1006.72206,0.28580
1004.79347,0.28123
1002.86489,0.27664
1000.93630,0.27169
999.00772,0.26606
997.07913,0.26052
995.15054,0.25525
993.22196,0.24963
991.29337,0.24372
989.36478,0.23787
987.43620,0.23206
985.50761,0.22581
983.57903,0.21901
981.65044,0.21171
979.72185,0.20371
977.79327,0.19532
975.86468,0.18709
973.93609,0.17891
972.00751,0.17048
970.07892,0.16243
968.15033,0.15517
966.22175,0.14841
964.29316,0.14215
962.36458,0.13627
960.43599,0.13077
958.50740,0.12595
956.57882,0.12199
954.65023,0.11845
952.72164,0.11514
950.79306,0.11239
948.86447,0.10992
946.93589,0.10783
945.00730,0.10619
943.07871,0.10456
941.15013,0.10310
939.22154,0.10172
937.29295,0.10047
935.36437,0.09925
933.43578,0.09777
931.50719,0.09615
929.57861,0.09475
927.65002,0.09392
925.72144,0.09311
923.79285,0.09216
921.86426,0.09158
919.93568,0.09104
918.00709,0.09035
916.07850,0.08953
914.14992,0.08836
912.22133,0.08652
910.29274,0.08380
908.36416,0.08016
906.43557,0.07561
904.50699,0.07060
902.57840,0.06536
900.64981,0.06021
898.72123,0.05525
896.79264,0.05035
894.86405,0.04623
892.93547,0.04292
891.00688,0.03977
889.07830,0.03654
887.14971,0.03358
885.22112,0.03110
883.29254,0.02837
881.36395,0.02522
879.43536,0.02232
877.50678,0.02010
875.57819,0.01781
873.64960,0.01498
871.72102,0.01266
869.79243,0.01050
867.86385,0.00789
865.93526,0.00559
864.00667,0.00395
862.07809,0.00274
860.14950,0.00146
858.22091,0.00044
856.29233,0.00000
854.36374,-0.00051
852.43516,-0.00054
850.50657,-0.00006
848.57798,0.00046
846.64940,0.00160
844.72081,0.00354
842.79222,0.00587
840.86364,0.00871
838.93505,0.01183
837.00646,0.01516
835.07788,0.01863
833.14929,0.02167
831.22071,0.02408
829.29212,0.02602
827.36353,0.02784
825.43495,0.02921
823.50636,0.03026
821.57777,0.03168
819.64919,0.03291
817.72060,0.03406
815.79201,0.03550
813.86343,0.03746
811.93484,0.04026
810.00626,0.04347
808.07767,0.04765
806.14908,0.05300
804.22050,0.05855
802.29191,0.06302
800.36332,0.06498
798.43474,0.06411
796.50615,0.06105
794.57757,0.05702
792.64898,0.05295
790.72039,0.04934
788.79181,0.04675
786.86322,0.04530
784.93463,0.04453
783.00605,0.04421
781.07746,0.04412
779.14887,0.04234
777.22029,0.03791
775.29170,0.03253
773.36312,0.02773
771.43453,0.02373
769.50594,0.02049
767.57736,0.01867
765.64877,0.01777
763.72018,0.01710
761.79160,0.01706
759.86301,0.01713
757.93443,0.01698
756.00584,0.01669
754.07725,0.01641
752.14867,0.01597
750.22008,0.01518
748.29149,0.01407
746.36291,0.01260
744.43432,0.01136
742.50573,0.00935
740.57715,0.00695
738.64856,0.00564
736.71998,0.00423
734.79139,0.00302
732.86280,0.00237
730.93422,0.00161
729.00563,0.00155
727.07704,0.00221
725.14846,0.00276
723.21987,0.00299
721.29129,0.00332
719.36270,0.00280
717.43411,0.00093
715.50553,-0.00033
713.57694,-0.00050
711.64835,-0.00044
709.71977,0.00003
707.79118,0.00127
705.86259,0.00304
703.93401,0.00454
702.00542,0.00607
700.07684,0.00935
698.14825,0.01391
696.21966,0.01721
694.29108,0.01687
692.36249,0.01341
690.43390,0.01008
688.50532,0.00787
686.57673,0.00615
684.64814,0.00484
682.71956,0.00425
680.79097,0.00399
678.86239,0.00343
676.93380,0.00331
675.00521,0.00334
673.07663,0.00316
671.14804,0.00274
669.21945,0.00200
667.29087,0.00145
665.36228,0.00095
663.43370,0.00035
661.50511,-0.00019
659.57652,0.00000
657.64794,0.00091
655.71935,0.00162
653.79076,0.00188
651.86218,0.00259
649.93359,0.00336
648.00500,0.00318
646.07642,0.00312
644.14783,0.00367
642.21925,0.00499
640.29066,0.00604
638.36207,0.00542
636.43349,0.00556
634.50490,0.00614
632.57631,0.00635
630.64773,0.00745
628.71914,0.00803
626.79056,0.00797
624.86197,0.00843
622.93338,0.00899
621.00480,0.00849
619.07621,0.00797
617.14762,0.01006
615.21904,0.01268
613.29045,0.01239
611.36186,0.01210
609.43328,0.01371
607.50469,0.01525
605.57611,0.01693
603.64752,0.01812
601.71893,0.01896
599.79035,0.02017
597.86176,0.02147
595.93317,0.02426
594.00459,0.02734
592.07600,0.02957
590.14742,0.03185
588.21883,0.03483
586.29024,0.03814
584.36166,0.04087
582.43307,0.04409
580.50448,0.04686
578.57590,0.04936
576.64731,0.05255
574.71872,0.05569
572.79014,0.05985
570.86155,0.06346
568.93297,0.06650
567.00438,0.07117
565.07579,0.07665
563.14721,0.08175
561.21862,0.08430
559.29003,0.08567
557.36145,0.09002
555.43286,0.09543
553.50427,0.09930
551.57569,0.10312
549.64710,0.10734
547.71852,0.11055
545.78993,0.11354
543.86134,0.11819
541.93276,0.12303
540.00417,0.12771
538.07558,0.13296
536.14700,0.13623
534.21841,0.13867
532.28983,0.14140
530.36124,0.14208
528.43265,0.14163
526.50407,0.14012
524.57548,0.13843
522.64689,0.13658
520.71831,0.13215
518.78972,0.12763
516.86113,0.12429
514.93255,0.12218
513.00396,0.11874
511.07538,0.11240
509.14679,0.10880
507.21820,0.10722
505.28962,0.10685
503.36103,0.10948
501.43244,0.11201
499.50386,0.11510
497.57527,0.12043
495.64669,0.12727
493.71810,0.13541
491.78951,0.14474
489.86093,0.15488
487.93234,0.16645
486.00375,0.17873
484.07517,0.19042
482.14658,0.20289
480.21799,0.21382
478.28941,0.22063
476.36082,0.22304
474.43224,0.22446
472.50365,0.22400
470.57506,0.22148
468.64648,0.22305
466.71789,0.21912
464.78930,0.20789
462.86072,0.19792
460.93213,0.18745
459.00355,0.17359
457.07496,0.16091
455.14637,0.15244
453.21779,0.14332
451.28920,0.13534
449.36061,0.12673
447.43203,0.11720
445.50344,0.10827
443.57485,0.10009
441.64627,0.09469
439.71768,0.08966
437.78910,0.08818
435.86051,0.08624
433.93192,0.08190
432.00334,0.07825
430.07475,0.07466
428.14616,0.07005
426.21758,0.05939
424.28899,0.05302
422.36040,0.05431
420.43182,0.05692
418.50323,0.05537
416.57465,0.05095
414.64606,0.04444
412.71747,0.02805
410.78889,0.01680
408.86030,0.00980
406.93171,0.00435
405.00313,0.00139
403.07454,0.00000
401.14596,0.00373
399.21737,0.00000
