3747.24323,0.00000
3745.31464,0.00156
3743.38605,0.00019
3741.45747,0.00038
3739.52888,0.00249
3737.60030,0.00334
3735.67171,0.00339
3733.74312,0.00339
3731.81454,0.00373
3729.88595,0.00419
3727.95736,0.00548
3726.02878,0.00658
3724.10019,0.00720
3722.17161,0.00848
3720.24302,0.00967
3718.31443,0.01148
3716.38585,0.01360
3714.45726,0.01642
3712.52867,0.01913
3710.60009,0.02073
3708.67150,0.02359
3706.74291,0.02691
3704.81433,0.03049
3702.88574,0.03378
3700.95716,0.03609
3699.02857,0.03838
3697.09998,0.03980
3695.17140,0.04074
3693.24281,0.04126
3691.31422,0.04230
3689.38564,0.04332
3687.45705,0.04366
3685.52846,0.04563
3683.59988,0.04858
3681.67129,0.05162
3679.74271,0.05475
3677.81412,0.05892
3675.88553,0.06234
3673.95695,0.06468
3672.02836,0.06944
3670.09977,0.07347
3668.17119,0.07660
3666.24260,0.08113
3664.31402,0.08531
3662.38543,0.08933
3660.45684,0.09307
3658.52826,0.09702
3656.59967,0.10060
3654.67108,0.10357
3652.74250,0.10750
3650.81391,0.11078
3648.88532,0.11276
3646.95674,0.11490
3645.02815,0.11791
3643.09957,0.12106
3641.17098,0.12375
3639.24239,0.12638
3637.31381,0.12898
3635.38522,0.13169
3633.45663,0.13432
3631.52805,0.13748
3629.59946,0.13991
3627.67088,0.14046
3625.74229,0.14191
3623.81370,0.14364
3621.88512,0.14475
3619.95653,0.14500
3618.02794,0.14365
3616.09936,0.14268
3614.17077,0.14201
3612.24218,0.14120
3610.31360,0.14080
3608.38501,0.14013
3606.45643,0.13942
3604.52784,0.13918
3602.59925,0.13914
3600.67067,0.13908
3598.74208,0.13903
3596.81349,0.13902
3594.88491,0.13888
3592.95632,0.13869
3591.02774,0.13908
3589.09915,0.13975
3587.17056,0.13979
3585.24198,0.13989
3583.31339,0.14061
3581.38480,0.14155
3579.45622,0.14260
3577.52763,0.14354
3575.59904,0.14433
3573.67046,0.14525
3571.74187,0.14635
3569.81329,0.14755
3567.88470,0.14853
3565.95611,0.14914
3564.02753,0.15004
3562.09894,0.15145
3560.17035,0.15291
3558.24177,0.15414
3556.31318,0.15523
3554.38459,0.15650
3552.45601,0.15756
3550.52742,0.15863
3548.59884,0.16006
3546.67025,0.16124
3544.74166,0.16222
3542.81308,0.16331
3540.88449,0.16457
3538.95590,0.16591
3537.02732,0.16699
3535.09873,0.16808
3533.17015,0.16930
3531.24156,0.17045
3529.31297,0.17131
3527.38439,0.17213
3525.45580,0.17324
3523.52721,0.17446
3521.59863,0.17572
3519.67004,0.17682
3517.74145,0.17783
3515.81287,0.17897
3513.88428,0.18011
3511.95570,0.18113
3510.02711,0.18208
3508.09852,0.18317
3506.16994,0.18439
3504.24135,0.18538
3502.31276,0.18602
3500.38418,0.18692
3498.45559,0.18824
3496.52701,0.18929
3494.59842,0.19011
3492.66983,0.19102
3490.74125,0.19195
3488.81266,0.19300
3486.88407,0.19396
3484.95549,0.19480
3483.02690,0.19575
3481.09831,0.19658
3479.16973,0.19722
3477.24114,0.19797
3475.31256,0.19870
3473.38397,0.19943
3471.45538,0.20027
3469.52680,0.20123
3467.59821,0.20216
3465.66962,0.20280
3463.74104,0.20339
3461.81245,0.20408
3459.88386,0.20484
3457.95528,0.20557
3456.02669,0.20615
3454.09811,0.20679
3452.16952,0.20750
3450.24093,0.20814
3448.31235,0.20874
3446.38376,0.20940
3444.45517,0.21013
3442.52659,0.21074
3440.59800,0.21133
3438.66942,0.21206
3436.74083,0.21260
3434.81224,0.21298
3432.88366,0.21347
3430.95507,0.21399
3429.02648,0.21455
3427.09790,0.21506
3425.16931,0.21562
3423.24072,0.21625
3421.31214,0.21668
3419.38355,0.21719
3417.45497,0.21773
3415.52638,0.21810
3413.59779,0.21841
3411.66921,0.21887
3409.74062,0.21933
3407.81203,0.21946
3405.88345,0.21972
3403.95486,0.22012
3402.02628,0.22039
3400.09769,0.22064
3398.16910,0.22077
3396.24052,0.22099
3394.31193,0.22137
3392.38334,0.22177
3390.45476,0.22206
3388.52617,0.22232
3386.59758,0.22243
3384.66900,0.22249
3382.74041,0.22280
3380.81183,0.22301
3378.88324,0.22319
3376.95465,0.22347
3375.02607,0.22361
3373.09748,0.22367
3371.16889,0.22396
3369.24031,0.22442
3367.31172,0.22461
3365.38314,0.22474
3363.45455,0.22489
3361.52596,0.22498
3359.59738,0.22510
3357.66879,0.22526
3355.74020,0.22544
3353.81162,0.22549
3351.88303,0.22552
3349.95444,0.22570
3348.02586,0.22599
3346.09727,0.22595
3344.16869,0.22575
3342.24010,0.22590
3340.31151,0.22606
3338.38293,0.22612
3336.45434,0.22603
3334.52575,0.22588
3332.59717,0.22591
3330.66858,0.22594
3328.73999,0.22589
3326.81141,0.22577
3324.88282,0.22569
3322.95424,0.22574
3321.02565,0.22573
3319.09706,0.22559
3317.16848,0.22538
3315.23989,0.22524
3313.31130,0.22521
3311.38272,0.22511
3309.45413,0.22507
3307.52555,0.22515
3305.59696,0.22500
3303.66837,0.22471
3301.73979,0.22451
3299.81120,0.22422
3297.88261,0.22399
3295.95403,0.22393
3294.02544,0.22373
3292.09685,0.22340
3290.16827,0.22306
3288.23968,0.22263
3286.31110,0.22212
3284.38251,0.22168
3282.45392,0.22119
3280.52534,0.22064
3278.59675,0.22009
3276.66816,0.21948
3274.73958,0.21888
3272.81099,0.21828
3270.88241,0.21764
3268.95382,0.21688
3267.02523,0.21594
3265.09665,0.21511
3263.16806,0.21445
3261.23947,0.21353
3259.31089,0.21247
3257.38230,0.21167
3255.45371,0.21082
3253.52513,0.20993
3251.59654,0.20907
3249.66796,0.20812
3247.73937,0.20717
3245.81078,0.20622
3243.88220,0.20554
3241.95361,0.20486
3240.02502,0.20398
3238.09644,0.20317
3236.16785,0.20233
3234.23927,0.20151
3232.31068,0.20072
3230.38209,0.20001
3228.45351,0.19931
3226.52492,0.19841
3224.59633,0.19768
3222.66775,0.19705
3220.73916,0.19629
3218.81057,0.19555
3216.88199,0.19473
3214.95340,0.19399
3213.02482,0.19324
3211.09623,0.19238
3209.16764,0.19168
3207.23906,0.19110
3205.31047,0.19034
3203.38188,0.18938
3201.45330,0.18859
3199.52471,0.18783
3197.59612,0.18690
3195.66754,0.18611
3193.73895,0.18542
3191.81037,0.18472
3189.88178,0.18400
3187.95319,0.18317
3186.02461,0.18232
3184.09602,0.18142
3182.16743,0.18053
3180.23885,0.17985
3178.31026,0.17920
3176.38168,0.17834
3174.45309,0.17735
3172.52450,0.17638
3170.59592,0.17560
3168.66733,0.17491
3166.73874,0.17412
3164.81016,0.17323
3162.88157,0.17246
3160.95298,0.17171
3159.02440,0.17085
3157.09581,0.17013
3155.16723,0.16943
3153.23864,0.16868
3151.31005,0.16796
3149.38147,0.16713
3147.45288,0.16640
3145.52429,0.16590
3143.59571,0.16532
3141.66712,0.16457
3139.73854,0.16389
3137.80995,0.16330
3135.88136,0.16278
3133.95278,0.16224
3132.02419,0.16156
3130.09560,0.16088
3128.16702,0.16031
3126.23843,0.15982
3124.30984,0.15931
3122.38126,0.15881
3120.45267,0.15846
3118.52409,0.15801
3116.59550,0.15742
3114.66691,0.15694
3112.73833,0.15654
3110.80974,0.15618
3108.88115,0.15580
3106.95257,0.15535
3105.02398,0.15500
3103.09540,0.15462
3101.16681,0.15416
3099.23822,0.15381
3097.30964,0.15347
3095.38105,0.15310
3093.45246,0.15282
3091.52388,0.15254
3089.59529,0.15219
3087.66670,0.15172
3085.73812,0.15127
3083.80953,0.15094
3081.88095,0.15051
3079.95236,0.15001
3078.02377,0.14961
3076.09519,0.14922
3074.16660,0.14878
3072.23801,0.14830
3070.30943,0.14778
3068.38084,0.14709
3066.45225,0.14641
3064.52367,0.14591
3062.59508,0.14542
3060.66650,0.14475
3058.73791,0.14400
3056.80932,0.14329
3054.88074,0.14258
3052.95215,0.14192
3051.02356,0.14142
3049.09498,0.14081
3047.16639,0.14008
3045.23781,0.13937
3043.30922,0.13876
3041.38063,0.13829
3039.45205,0.13781
3037.52346,0.13733
3035.59487,0.13684
3033.66629,0.13636
3031.73770,0.13600
3029.80911,0.13562
3027.88053,0.13523
3025.95194,0.13486
3024.02336,0.13442
3022.09477,0.13402
3020.16618,0.13368
3018.23760,0.13341
3016.30901,0.13326
3014.38042,0.13332
3012.45184,0.13342
3010.52325,0.13349
3008.59467,0.13376
3006.66608,0.13406
3004.73749,0.13436
3002.80891,0.13480
3000.88032,0.13529
2998.95173,0.13591
2997.02315,0.13657
2995.09456,0.13724
2993.16597,0.13803
2991.23739,0.13902
2989.30880,0.14034
2987.38022,0.14175
2985.45163,0.14311
2983.52304,0.14470
2981.59446,0.14665
2979.66587,0.14866
2977.73728,0.15057
2975.80870,0.15265
2973.88011,0.15500
2971.95153,0.15749
2970.02294,0.16009
2968.09435,0.16268
2966.16577,0.16530
2964.23718,0.16788
2962.30859,0.17039
2960.38001,0.17299
2958.45142,0.17529
2956.52283,0.17715
2954.59425,0.17901
2952.66566,0.18093
2950.73708,0.18293
2948.80849,0.18525
2946.87990,0.18813
2944.95132,0.19170
2943.02273,0.19589
2941.09414,0.20045
2939.16556,0.20539
2937.23697,0.21065
2935.30838,0.21588
2933.37980,0.22104
2931.45121,0.22604
2929.52263,0.23072
2927.59404,0.23483
2925.66545,0.23808
2923.73687,0.24025
2921.80828,0.24097
2919.87969,0.23990
2917.95111,0.23604
2916.02252,0.22833
2914.09394,0.21811
2912.16535,0.20817
2910.23676,0.19995
2908.30818,0.19355
2906.37959,0.18855
2904.45100,0.18435
2902.52242,0.18071
2900.59383,0.17742
2898.66524,0.17438
2896.73666,0.17157
2894.80807,0.16867
2892.87949,0.16584
2890.95090,0.16321
2889.02231,0.16069
2887.09373,0.15841
2885.16514,0.15637
2883.23655,0.15469
2881.30797,0.15338
2879.37938,0.15253
2877.45080,0.15212
2875.52221,0.15194
2873.59362,0.15211
2871.66504,0.15239
2869.73645,0.15274
2867.80786,0.15346
2865.87928,0.15479
2863.95069,0.15718
2862.02210,0.16087
2860.09352,0.16604
2858.16493,0.17234
2856.23635,0.17868
2854.30776,0.18370
2852.37917,0.18589
2850.45059,0.18351
2848.52200,0.17540
2846.59341,0.16352
2844.66483,0.15151
2842.73624,0.14114
2840.80766,0.13264
2838.87907,0.12588
2836.95048,0.12047
2835.02190,0.11603
2833.09331,0.11239
2831.16472,0.10940
2829.23614,0.10689
2827.30755,0.10462
2825.37896,0.10248
2823.45038,0.10057
2821.52179,0.09892
2819.59321,0.09742
2817.66462,0.09596
2815.73603,0.09458
2813.80745,0.09333
2811.87886,0.09222
2809.95027,0.09115
2808.02169,0.09002
2806.09310,0.08900
2804.16451,0.08812
2802.23593,0.08725
2800.30734,0.08639
2798.37876,0.08559
2796.45017,0.08481
2794.52158,0.08411
2792.59300,0.08341
2790.66441,0.08263
2788.73582,0.08192
2786.80724,0.08121
2784.87865,0.08049
2782.95007,0.07992
2781.02148,0.07933
2779.09289,0.07862
2777.16431,0.07799
2775.23572,0.07750
2773.30713,0.07695
2771.37855,0.07644
2769.44996,0.07599
2767.52137,0.07548
2765.59279,0.07505
2763.66420,0.07461
2761.73562,0.07415
2759.80703,0.07381
2757.87844,0.07351
2755.94986,0.07315
2754.02127,0.07269
2752.09268,0.07223
2750.16410,0.07182
2748.23551,0.07148
2746.30693,0.07110
2744.37834,0.07075
2742.44975,0.07051
2740.52117,0.07016
2738.59258,0.06979
2736.66399,0.06944
2734.73541,0.06907
2732.80682,0.06871
2730.87823,0.06834
2728.94965,0.06796
2727.02106,0.06759
2725.09248,0.06717
2723.16389,0.06675
2721.23530,0.06634
2719.30672,0.06585
2717.37813,0.06529
2715.44954,0.06482
2713.52096,0.06439
2711.59237,0.06396
2709.66379,0.06355
2707.73520,0.06317
2705.80661,0.06277
2703.87803,0.06234
2701.94944,0.06194
2700.02085,0.06160
2698.09227,0.06126
2696.16368,0.06088
2694.23509,0.06059
2692.30651,0.06037
2690.37792,0.06004
2688.44934,0.05966
2686.52075,0.05939
2684.59216,0.05913
2682.66358,0.05880
2680.73499,0.05843
2678.80640,0.05805
2676.87782,0.05769
2674.94923,0.05737
2673.02064,0.05708
2671.09206,0.05672
2669.16347,0.05631
2667.23489,0.05596
2665.30630,0.05566
2663.37771,0.05536
2661.44913,0.05501
2659.52054,0.05468
2657.59195,0.05433
2655.66337,0.05395
2653.73478,0.05368
2651.80620,0.05334
2649.87761,0.05298
2647.94902,0.05277
2646.02044,0.05252
2644.09185,0.05211
2642.16326,0.05176
2640.23468,0.05150
2638.30609,0.05116
2636.37750,0.05082
2634.44892,0.05049
2632.52033,0.05016
2630.59175,0.04993
2628.66316,0.04959
2626.73457,0.04922
2624.80599,0.04897
2622.87740,0.04864
2620.94881,0.04818
2619.02023,0.04785
2617.09164,0.04769
2615.16306,0.04745
2613.23447,0.04710
2611.30588,0.04675
2609.37730,0.04636
2607.44871,0.04597
2605.52012,0.04562
2603.59154,0.04534
2601.66295,0.04507
2599.73436,0.04470
2597.80578,0.04429
2595.87719,0.04397
2593.94861,0.04379
2592.02002,0.04350
2590.09143,0.04310
2588.16285,0.04278
2586.23426,0.04245
2584.30567,0.04214
2582.37709,0.04179
2580.44850,0.04142
2578.51991,0.04113
2576.59133,0.04087
2574.66274,0.04053
2572.73416,0.04020
2570.80557,0.03996
2568.87698,0.03975
2566.94840,0.03948
2565.01981,0.03918
2563.09122,0.03895
2561.16264,0.03871
2559.23405,0.03843
2557.30547,0.03819
2555.37688,0.03798
2553.44829,0.03770
2551.51971,0.03736
2549.59112,0.03711
2547.66253,0.03690
2545.73395,0.03664
2543.80536,0.03643
2541.87677,0.03623
2539.94819,0.03603
2538.01960,0.03574
2536.09102,0.03539
2534.16243,0.03513
2532.23384,0.03490
2530.30526,0.03470
2528.37667,0.03449
2526.44808,0.03418
2524.51950,0.03390
2522.59091,0.03365
2520.66233,0.03345
2518.73374,0.03322
2516.80515,0.03291
2514.87657,0.03263
2512.94798,0.03240
2511.01939,0.03211
2509.09081,0.03178
2507.16222,0.03148
2505.23363,0.03120
2503.30505,0.03092
2501.37646,0.03062
2499.44788,0.03033
2497.51929,0.03003
2495.59070,0.02973
2493.66212,0.02946
2491.73353,0.02918
2489.80494,0.02889
2487.87636,0.02859
2485.94777,0.02828
2484.01919,0.02799
2482.09060,0.02773
2480.16201,0.02750
2478.23343,0.02723
2476.30484,0.02686
2474.37625,0.02650
2472.44767,0.02616
2470.51908,0.02583
2468.59049,0.02559
2466.66191,0.02536
2464.73332,0.02505
2462.80474,0.02466
2460.87615,0.02429
2458.94756,0.02406
2457.01898,0.02380
2455.09039,0.02351
2453.16180,0.02324
2451.23322,0.02293
2449.30463,0.02258
2447.37604,0.02223
2445.44746,0.02199
2443.51887,0.02179
2441.59029,0.02153
2439.66170,0.02121
2437.73311,0.02084
2435.80453,0.02053
2433.87594,0.02028
2431.94735,0.02001
2430.01877,0.01968
2428.09018,0.01939
2426.16160,0.01918
2424.23301,0.01893
2422.30442,0.01858
2420.37584,0.01822
2418.44725,0.01796
2416.51866,0.01773
2414.59008,0.01750
2412.66149,0.01732
2410.73290,0.01704
2408.80432,0.01666
2406.87573,0.01631
2404.94715,0.01611
2403.01856,0.01590
2401.08997,0.01556
2399.16139,0.01523
2397.23280,0.01498
2395.30421,0.01479
2393.37563,0.01457
2391.44704,0.01435
2389.51846,0.01420
2387.58987,0.01395
2385.66128,0.01368
2383.73270,0.01345
2381.80411,0.01317
2379.87552,0.01288
2377.94694,0.01258
2376.01835,0.01224
2374.08976,0.01200
2372.16118,0.01171
2370.23259,0.01127
2368.30401,0.01091
2366.37542,0.01060
2364.44683,0.01018
2362.51825,0.00991
2360.58966,0.00974
2358.66107,0.00943
2356.73249,0.00920
2354.80390,0.00916
2352.87532,0.00912
2350.94673,0.00917
2349.01814,0.00944
2347.08956,0.00956
2345.16097,0.00924
2343.23238,0.00892
2341.30380,0.00880
2339.37521,0.00868
2337.44662,0.00841
2335.51804,0.00805
2333.58945,0.00779
2331.66087,0.00755
2329.73228,0.00734
2327.80369,0.00722
2325.87511,0.00719
2323.94652,0.00716
2322.01793,0.00702
2320.08935,0.00690
2318.16076,0.00683
2316.23217,0.00679
2314.30359,0.00669
2312.37500,0.00659
2310.44642,0.00660
2308.51783,0.00647
2306.58924,0.00626
2304.66066,0.00614
2302.73207,0.00605
2300.80348,0.00591
2298.87490,0.00574
2296.94631,0.00564
2295.01773,0.00555
2293.08914,0.00544
2291.16055,0.00535
2289.23197,0.00522
2287.30338,0.00512
2285.37479,0.00500
2283.44621,0.00485
2281.51762,0.00472
2279.58903,0.00452
2277.66045,0.00434
2275.73186,0.00426
2273.80328,0.00418
2271.87469,0.00401
2269.94610,0.00389
2268.01752,0.00384
2266.08893,0.00380
2264.16034,0.00366
2262.23176,0.00348
2260.30317,0.00334
2258.37459,0.00320
2256.44600,0.00310
2254.51741,0.00300
2252.58883,0.00294
2250.66024,0.00290
2248.73165,0.00282
2246.80307,0.00270
2244.87448,0.00255
2242.94589,0.00243
2241.01731,0.00239
2239.08872,0.00236
2237.16014,0.00225
2235.23155,0.00208
2233.30296,0.00200
2231.37438,0.00196
2229.44579,0.00187
2227.51720,0.00171
2225.58862,0.00156
2223.66003,0.00149
2221.73145,0.00143
2219.80286,0.00130
2217.87427,0.00116
2215.94569,0.00109
2214.01710,0.00105
2212.08851,0.00102
2210.15993,0.00096
2208.23134,0.00084
2206.30275,0.00069
2204.37417,0.00059
2202.44558,0.00054
2200.51700,0.00052
2198.58841,0.00050
2196.65982,0.00048
2194.73124,0.00049
2192.80265,0.00047
2190.87406,0.00035
2188.94548,0.00024
2187.01689,0.00022
2185.08830,0.00024
2183.15972,0.00021
2181.23113,0.00021
2179.30255,0.00024
2177.37396,0.00019
2175.44537,0.00021
2173.51679,0.00024
2171.58820,0.00013
2169.65961,0.00000
2167.73103,0.00007
2165.80244,0.00013
2163.87386,0.00013
2161.94527,0.00020
2160.01668,0.00019
2158.08810,0.00014
2156.15951,0.00018
2154.23092,0.00025
2152.30234,0.00026
2150.37375,0.00019
2148.44516,0.00016
2146.51658,0.00017
2144.58799,0.00023
2142.65941,0.00027
2140.73082,0.00022
2138.80223,0.00021
2136.87365,0.00022
2134.94506,0.00021
2133.01647,0.00023
2131.08789,0.00022
2129.15930,0.00020
2127.23072,0.00018
2125.30213,0.00010
2123.37354,0.00002
2121.44496,0.00000
2119.51637,0.00003
2117.58778,0.00003
2115.65920,-0.00001
2113.73061,-0.00002
2111.80202,-0.00004
2109.87344,0.00003
2107.94485,0.00011
2106.01627,0.00005
2104.08768,0.00000
2102.15909,-0.00003
2100.23051,-0.00008
2098.30192,0.00001
2096.37333,0.00008
2094.44475,0.00002
2092.51616,-0.00001
2090.58758,0.00007
2088.65899,0.00006
2086.73040,0.00001
2084.80182,0.00003
2082.87323,0.00002
2080.94464,0.00000
2079.01606,-0.00002
2077.08747,-0.00005
2075.15888,-0.00011
2073.23030,-0.00011
2071.30171,0.00002
2069.37313,0.00005
2067.44454,0.00004
2065.51595,0.00007
2063.58737,0.00003
2061.65878,0.00005
2059.73019,0.00012
2057.80161,0.00018
2055.87302,0.00019
2053.94443,0.00016
2052.01585,0.00025
2050.08726,0.00035
2048.15868,0.00043
2046.23009,0.00052
2044.30150,0.00061
2042.37292,0.00074
2040.44433,0.00086
2038.51574,0.00101
2036.58716,0.00121
2034.65857,0.00145
2032.72999,0.00165
2030.80140,0.00170
2028.87281,0.00178
2026.94423,0.00185
2025.01564,0.00185
2023.08705,0.00184
2021.15847,0.00185
2019.22988,0.00196
2017.30129,0.00204
2015.37271,0.00209
2013.44412,0.00230
2011.51554,0.00251
2009.58695,0.00264
2007.65836,0.00271
2005.72978,0.00280
2003.80119,0.00286
2001.87260,0.00286
1999.94402,0.00291
1998.01543,0.00294
1996.08685,0.00290
1994.15826,0.00291
1992.22967,0.00290
1990.30109,0.00271
1988.37250,0.00253
1986.44391,0.00247
1984.51533,0.00245
1982.58674,0.00244
1980.65815,0.00239
1978.72957,0.00228
1976.80098,0.00218
1974.87240,0.00212
1972.94381,0.00200
1971.01522,0.00183
1969.08664,0.00177
1967.15805,0.00169
1965.22946,0.00144
1963.30088,0.00118
1961.37229,0.00099
1959.44371,0.00089
1957.51512,0.00081
1955.58653,0.00071
1953.65795,0.00066
1951.72936,0.00056
1949.80077,0.00044
1947.87219,0.00042
1945.94360,0.00042
1944.01501,0.00034
1942.08643,0.00018
1940.15784,0.00011
1938.22926,0.00014
1936.30067,0.00008
1934.37208,0.00003
1932.44350,-0.00004
1930.51491,-0.00007
1928.58632,-0.00005
1926.65774,-0.00007
1924.72915,0.00000
1922.80056,0.00002
1920.87198,0.00009
1918.94339,0.00016
1917.01481,0.00016
1915.08622,0.00038
1913.15763,0.00076
1911.22905,0.00116
1909.30046,0.00154
1907.37187,0.00191
1905.44329,0.00243
1903.51470,0.00291
1901.58612,0.00332
1899.65753,0.00378
1897.72894,0.00427
1895.80036,0.00473
1893.87177,0.00509
1891.94318,0.00547
1890.01460,0.00582
1888.08601,0.00608
1886.15742,0.00639
1884.22884,0.00661
1882.30025,0.00680
1880.37167,0.00700
1878.44308,0.00706
1876.51449,0.00708
1874.58591,0.00709
1872.65732,0.00718
1870.72873,0.00724
1868.80015,0.00697
1866.87156,0.00660
1864.94298,0.00637
1863.01439,0.00603
1861.08580,0.00551
1859.15722,0.00491
1857.22863,0.00423
1855.30004,0.00360
1853.37146,0.00294
1851.44287,0.00232
1849.51428,0.00171
1847.58570,0.00125
1845.65711,0.00109
1843.72853,0.00050
1841.79994,0.00000
1839.87135,-0.00008
1837.94277,-0.00026
1836.01418,-0.00043
1834.08559,-0.00057
1832.15701,-0.00051
1830.22842,-0.00044
1828.29984,-0.00045
1826.37125,-0.00016
1824.44266,0.00008
1822.51408,0.00040
1820.58549,0.00093
1818.65690,0.00148
1816.72832,0.00212
1814.79973,0.00285
1812.87114,0.00369
1810.94256,0.00458
1809.01397,0.00559
1807.08539,0.00677
1805.15680,0.00811
1803.22821,0.00962
1801.29963,0.01109
1799.37104,0.01262
1797.44245,0.01436
1795.51387,0.01633
1793.58528,0.01836
1791.65669,0.02023
1789.72811,0.02229
1787.79952,0.02472
1785.87094,0.02707
1783.94235,0.02939
1782.01376,0.03179
1780.08518,0.03422
1778.15659,0.03662
1776.22800,0.03896
1774.29942,0.04134
1772.37083,0.04319
1770.44225,0.04497
1768.51366,0.04727
1766.58507,0.04924
1764.65649,0.05143
1762.72790,0.05372
1760.79931,0.05569
1758.87073,0.05821
1756.94214,0.06089
1755.01355,0.06376
1753.08497,0.06717
1751.15638,0.07057
1749.22780,0.07415
1747.29921,0.07830
1745.37062,0.08284
1743.44204,0.08761
1741.51345,0.09244
1739.58486,0.09687
1737.65628,0.10118
1735.72769,0.10552
1733.79911,0.10853
1731.87052,0.11117
1729.94193,0.11446
1728.01335,0.11726
1726.08476,0.12011
1724.15617,0.12299
1722.22759,0.12582
1720.29900,0.12916
1718.37041,0.13207
1716.44183,0.13444
1714.51324,0.13694
1712.58466,0.13959
1710.65607,0.14192
1708.72748,0.14409
1706.79890,0.14627
1704.87031,0.14814
1702.94172,0.15075
1701.01314,0.15318
1699.08455,0.15497
1697.15596,0.15796
1695.22738,0.16040
1693.29879,0.16264
1691.37021,0.16579
1689.44162,0.16831
1687.51303,0.17136
1685.58445,0.17434
1683.65586,0.17617
1681.72727,0.17890
1679.79869,0.18211
1677.87010,0.18527
1675.94152,0.18796
1674.01293,0.19007
1672.08434,0.19263
1670.15576,0.19482
1668.22717,0.19655
1666.29858,0.19849
1664.37000,0.20024
1662.44141,0.20131
1660.51282,0.20229
1658.58424,0.20325
1656.65565,0.20419
1654.72707,0.20517
1652.79848,0.20396
1650.86989,0.20286
1648.94131,0.20386
1647.01272,0.20386
1645.08413,0.20311
1643.15555,0.20306
1641.22696,0.20318
1639.29838,0.20330
1637.36979,0.20363
1635.44120,0.20322
1633.51262,0.20242
1631.58403,0.20238
1629.65544,0.20184
1627.72686,0.20060
1625.79827,0.19906
1623.86968,0.19717
1621.94110,0.19487
1620.01251,0.19298
1618.08393,0.19134
1616.15534,0.18859
1614.22675,0.18657
1612.29817,0.18517
1610.36958,0.18328
1608.44099,0.18149
1606.51241,0.17992
1604.58382,0.17865
1602.65524,0.17731
1600.72665,0.17598
1598.79806,0.17451
1596.86948,0.17303
1594.94089,0.17166
1593.01230,0.17004
1591.08372,0.16824
1589.15513,0.16615
1587.22654,0.16426
1585.29796,0.16229
1583.36937,0.16025
1581.44079,0.15826
1579.51220,0.15656
1577.58361,0.15520
1575.65503,0.15288
1573.72644,0.15121
1571.79785,0.15076
1569.86927,0.14979
1567.94068,0.14881
1566.01209,0.14836
1564.08351,0.14811
1562.15492,0.14848
1560.22634,0.14867
1558.29775,0.14752
1556.36916,0.14732
1554.44058,0.14785
1552.51199,0.14786
1550.58340,0.14804
1548.65482,0.14790
1546.72623,0.14777
1544.79765,0.14754
1542.86906,0.14712
1540.94047,0.14651
1539.01189,0.14483
1537.08330,0.14401
1535.15471,0.14373
1533.22613,0.14252
1531.29754,0.14131
1529.36895,0.14049
1527.44037,0.13952
1525.51178,0.13837
1523.58320,0.13783
1521.65461,0.13721
1519.72602,0.13672
1517.79744,0.13691
1515.86885,0.13623
1513.94026,0.13467
1512.01168,0.13252
1510.08309,0.13024
1508.15451,0.12793
1506.22592,0.12407
1504.29733,0.12018
1502.36875,0.11716
1500.44016,0.11374
1498.51157,0.11019
1496.58299,0.10631
1494.65440,0.10255
1492.72581,0.09992
1490.79723,0.09751
1488.86864,0.09510
1486.94006,0.09343
1485.01147,0.09243
1483.08288,0.09212
1481.15430,0.09247
1479.22571,0.09369
1477.29712,0.09591
1475.36854,0.09913
1473.43995,0.10370
1471.51137,0.10933
1469.58278,0.11557
1467.65419,0.12106
1465.72561,0.12404
1463.79702,0.12521
1461.86843,0.12600
1459.93985,0.12710
1458.01126,0.12806
1456.08267,0.12817
1454.15409,0.12836
1452.22550,0.12850
1450.29692,0.12824
1448.36833,0.12784
1446.43974,0.12725
1444.51116,0.12685
1442.58257,0.12648
1440.65398,0.12631
1438.72540,0.12654
1436.79681,0.12632
1434.86822,0.12589
1432.93964,0.12602
1431.01105,0.12622
1429.08247,0.12631
1427.15388,0.12658
1425.22529,0.12670
1423.29671,0.12681
1421.36812,0.12732
1419.43953,0.12746
1417.51095,0.12713
1415.58236,0.12713
1413.65378,0.12688
1411.72519,0.12636
1409.79660,0.12587
1407.86802,0.12521
1405.93943,0.12456
1404.01084,0.12370
1402.08226,0.12291
1400.15367,0.12206
1398.22508,0.12088
1396.29650,0.11996
1394.36791,0.11913
1392.43933,0.11842
1390.51074,0.11818
1388.58215,0.11797
1386.65357,0.11721
1384.72498,0.11668
1382.79639,0.11742
1380.86781,0.11859
1378.93922,0.11915
1377.01064,0.11900
1375.08205,0.11835
1373.15346,0.11738
1371.22488,0.11618
1369.29629,0.11482
1367.36770,0.11327
1365.43912,0.11188
1363.51053,0.11058
1361.58194,0.10910
1359.65336,0.10784
1357.72477,0.10690
1355.79619,0.10608
1353.86760,0.10529
1351.93901,0.10449
1350.01043,0.10370
1348.08184,0.10305
1346.15325,0.10249
1344.22467,0.10191
1342.29608,0.10140
1340.36750,0.10076
1338.43891,0.10007
1336.51032,0.09960
1334.58174,0.09934
1332.65315,0.09903
1330.72456,0.09848
1328.79598,0.09802
1326.86739,0.09772
1324.93880,0.09742
1323.01022,0.09705
1321.08163,0.09653
1319.15305,0.09615
1317.22446,0.09595
1315.29587,0.09573
1313.36729,0.09537
1311.43870,0.09502
1309.51011,0.09474
1307.58153,0.09438
1305.65294,0.09416
1303.72435,0.09398
1301.79577,0.09377
1299.86718,0.09381
1297.93860,0.09395
1296.01001,0.09414
1294.08142,0.09461
1292.15284,0.09529
1290.22425,0.09620
1288.29566,0.09736
1286.36708,0.09869
1284.43849,0.10024
1282.50991,0.10187
1280.58132,0.10354
1278.65273,0.10530
1276.72415,0.10714
1274.79556,0.10910
1272.86697,0.11110
1270.93839,0.11321
1269.00980,0.11535
1267.08121,0.11747
1265.15263,0.11988
1263.22404,0.12255
1261.29546,0.12545
1259.36687,0.12886
1257.43828,0.13303
1255.50970,0.13778
1253.58111,0.14275
1251.65252,0.14817
1249.72394,0.15368
1247.79535,0.15898
1245.86677,0.16422
1243.93818,0.16906
1242.00959,0.17363
1240.08101,0.17803
1238.15242,0.18216
1236.22383,0.18599
1234.29525,0.18938
1232.36666,0.19248
1230.43807,0.19527
1228.50949,0.19784
1226.58090,0.20034
1224.65232,0.20260
1222.72373,0.20470
1220.79514,0.20669
1218.86656,0.20876
1216.93797,0.21083
1215.00938,0.21260
1213.08080,0.21415
1211.15221,0.21581
1209.22363,0.21785
1207.29504,0.21962
1205.36645,0.22091
1203.43787,0.22243
1201.50928,0.22395
1199.58069,0.22527
1197.65211,0.22668
1195.72352,0.22791
1193.79493,0.22904
1191.86635,0.23037
1189.93776,0.23162
1188.00918,0.23288
1186.08059,0.23440
1184.15200,0.23626
1182.22342,0.23826
1180.29483,0.24000
1178.36624,0.24198
1176.43766,0.24446
1174.50907,0.24703
1172.58048,0.24948
1170.65190,0.25186
1168.72331,0.25467
1166.79473,0.25755
1164.86614,0.26002
1162.93755,0.26223
1161.00897,0.26401
1159.08038,0.26525
1157.15179,0.26615
1155.22321,0.26720
1153.29462,0.26857
1151.36604,0.26998
1149.43745,0.27156
1147.50886,0.27356
1145.58028,0.27571
1143.65169,0.27802
1141.72310,0.28085
1139.79452,0.28368
1137.86593,0.28641
1135.93734,0.28978
1134.00876,0.29376
1132.08017,0.29767
1130.15159,0.30128
1128.22300,0.30562
1126.29441,0.31081
1124.36583,0.31599
1122.43724,0.32141
1120.50865,0.32688
1118.58007,0.33242
1116.65148,0.33857
1114.72290,0.34479
1112.79431,0.35098
1110.86572,0.35722
1108.93714,0.36306
1107.00855,0.36812
1105.07996,0.37236
1103.15138,0.37599
1101.22279,0.37886
1099.29420,0.38077
1097.36562,0.38189
1095.43703,0.38240
1093.50845,0.38215
1091.57986,0.38132
1089.65127,0.38035
1087.72269,0.37895
1085.79410,0.37740
1083.86551,0.37580
1081.93693,0.37372
1080.00834,0.37150
1078.07976,0.36913
1076.15117,0.36697
1074.22258,0.36503
1072.29400,0.36269
1070.36541,0.36043
1068.43682,0.35839
1066.50824,0.35667
1064.57965,0.35515
1062.65106,0.35287
1060.72248,0.35033
1058.79389,0.34788
1056.86531,0.34497
1054.93672,0.34189
1053.00813,0.33915
1051.07955,0.33693
1049.15096,0.33498
1047.22237,0.33348
1045.29379,0.33261
1043.36520,0.33221
1041.43661,0.33225
1039.50803,0.33250
1037.57944,0.33260
1035.65086,0.33238
1033.72227,0.33172
1031.79368,0.33015
1029.86510,0.32774
1027.93651,0.32484
1026.00792,0.32130
1024.07934,0.31734
1022.15075,0.31351
1020.22217,0.31032
1018.29358,0.30712
1016.36499,0.30346
1014.43641,0.29984
1012.50782,0.29626
1010.57923,0.29293
1008.65065,0.28933
1006.72206,0.28517
1004.79347,0.28098
1002.86489,0.27620
1000.93630,0.27112
999.00772,0.26606
997.07913,0.26073
995.15054,0.25546
993.22196,0.25008
991.29337,0.24452
989.36478,0.23875
987.43620,0.23255
985.50761,0.22600
983.57903,0.21893
981.65044,0.21135
979.72185,0.20359
977.79327,0.19569
975.86468,0.18741
973.93609,0.17894
972.00751,0.17071
970.07892,0.16273
968.15033,0.15516
966.22175,0.14816
964.29316,0.14156
962.36458,0.13549
960.43599,0.13015
958.50740,0.12561
956.57882,0.12169
954.65023,0.11785
952.72164,0.11423
950.79306,0.11126
948.86447,0.10895
946.93589,0.10721
945.00730,0.10547
943.07871,0.10370
941.15013,0.10226
939.22154,0.10067
937.29295,0.09920
935.36437,0.09808
933.43578,0.09672
931.50719,0.09516
929.57861,0.09376
927.65002,0.09283
925.72144,0.09212
923.79285,0.09131
921.86426,0.09068
919.93568,0.09046
918.00709,0.09034
916.07850,0.08965
914.14992,0.08871
912.22133,0.08727
910.29274,0.08449
908.36416,0.08068
906.43557,0.07629
904.50699,0.07148
902.57840,0.06607
900.64981,0.06076
898.72123,0.05635
896.79264,0.05220
894.86405,0.04802
892.93547,0.04416
891.00688,0.04084
889.07830,0.03769
887.14971,0.03454
885.22112,0.03175
883.29254,0.02914
881.36395,0.02659
879.43536,0.02402
877.50678,0.02148
875.57819,0.01900
873.64960,0.01641
871.72102,0.01388
869.79243,0.01157
867.86385,0.00943
865.93526,0.00732
864.00667,0.00547
862.07809,0.00392
860.14950,0.00249
858.22091,0.00143
856.29233,0.00066
854.36374,0.00000
852.43516,-0.00001
850.50657,0.00079
848.57798,0.00160
846.64940,0.00285
844.72081,0.00485
842.79222,0.00732
840.86364,0.01007
838.93505,0.01282
837.00646,0.01619
835.07788,0.01948
833.14929,0.02183
831.22071,0.02416
829.29212,0.02649
827.36353,0.02839
825.43495,0.02957
823.50636,0.03056
821.57777,0.03171
819.64919,0.03239
817.72060,0.03331
815.79201,0.03493
813.86343,0.03704
811.93484,0.03955
810.00626,0.04274
808.07767,0.04705
806.14908,0.05228
804.22050,0.05782
802.29191,0.06209
800.36332,0.06379
798.43474,0.06287
796.50615,0.05993
794.57757,0.05570
792.64898,0.05120
790.72039,0.04800
788.79181,0.04576
786.86322,0.04407
784.93463,0.04366
783.00605,0.04377
781.07746,0.04374
779.14887,0.04252
777.22029,0.03877
775.29170,0.03342
773.36312,0.02823
771.43453,0.02401
769.50594,0.02115
767.57736,0.01983
765.64877,0.01903
763.72018,0.01802
761.79160,0.01742
759.86301,0.01741
757.93443,0.01761
756.00584,0.01779
754.07725,0.01765
752.14867,0.01710
750.22008,0.01651
748.29149,0.01563
746.36291,0.01403
744.43432,0.01226
742.50573,0.01037
740.57715,0.00805
738.64856,0.00613
736.71998,0.00471
734.79139,0.00314
732.86280,0.00233
730.93422,0.00256
729.00563,0.00273
727.07704,0.00268
725.14846,0.00288
723.21987,0.00357
721.29129,0.00400
719.36270,0.00323
717.43411,0.00180
715.50553,0.00060
713.57694,0.00000
711.64835,-0.00019
709.71977,0.00016
707.79118,0.00151
705.86259,0.00333
703.93401,0.00484
702.00542,0.00668
700.07684,0.00970
698.14825,0.01348
696.21966,0.01632
694.29108,0.01613
692.36249,0.01337
690.43390,0.01011
688.50532,0.00801
686.57673,0.00726
684.64814,0.00650
682.71956,0.00559
680.79097,0.00488
678.86239,0.00431
676.93380,0.00373
675.00521,0.00292
673.07663,0.00268
671.14804,0.00254
669.21945,0.00184
667.29087,0.00131
665.36228,0.00128
663.43370,0.00120
661.50511,0.00090
659.57652,0.00123
657.64794,0.00193
655.71935,0.00210
653.79076,0.00200
651.86218,0.00212
649.93359,0.00263
648.00500,0.00387
646.07642,0.00498
644.14783,0.00516
642.21925,0.00592
640.29066,0.00650
638.36207,0.00611
636.43349,0.00672
634.50490,0.00814
632.57631,0.00898
630.64773,0.00869
628.71914,0.00929
626.79056,0.01100
624.86197,0.01140
622.93338,0.01228
621.00480,0.01423
619.07621,0.01471
617.14762,0.01347
615.21904,0.01326
613.29045,0.01527
611.36186,0.01683
609.43328,0.01742
607.50469,0.01798
605.57611,0.01902
603.64752,0.02162
601.71893,0.02418
599.79035,0.02528
597.86176,0.02615
595.93317,0.02773
594.00459,0.02968
592.07600,0.03159
590.14742,0.03454
588.21883,0.03878
586.29024,0.04284
584.36166,0.04651
582.43307,0.04968
580.50448,0.05183
578.57590,0.05485
576.64731,0.05887
574.71872,0.06277
572.79014,0.06763
570.86155,0.07187
568.93297,0.07433
567.00438,0.07676
565.07579,0.08052
563.14721,0.08641
561.21862,0.09194
559.29003,0.09543
557.36145,0.09835
555.43286,0.10136
553.50427,0.10504
551.57569,0.10931
549.64710,0.11309
547.71852,0.11583
545.78993,0.11910
543.86134,0.12362
541.93276,0.12905
540.00417,0.13500
538.07558,0.13831
536.14700,0.14014
534.21841,0.14403
532.28983,0.14773
530.36124,0.14972
528.43265,0.15136
526.50407,0.15077
524.57548,0.14639
522.64689,0.14201
520.71831,0.13977
518.78972,0.13716
516.86113,0.13282
514.93255,0.12884
513.00396,0.12555
511.07538,0.12331
509.14679,0.12095
507.21820,0.11643
505.28962,0.11633
503.36103,0.11843
501.43244,0.11841
499.50386,0.12270
497.57527,0.12842
495.64669,0.13481
493.71810,0.14466
491.78951,0.15417
489.86093,0.16302
487.93234,0.17364
486.00375,0.18642
484.07517,0.19862
482.14658,0.20868
480.21799,0.21593
478.28941,0.22324
476.36082,0.23004
474.43224,0.23512
472.50365,0.24158
470.57506,0.24091
468.64648,0.23234
466.71789,0.22366
464.78930,0.21738
462.86072,0.20863
460.93213,0.19256
459.00355,0.17589
457.07496,0.16459
455.14637,0.15801
453.21779,0.14906
451.28920,0.13714
449.36061,0.12813
447.43203,0.12263
445.50344,0.11575
443.57485,0.10767
441.64627,0.10332
439.71768,0.09853
437.78910,0.09603
435.86051,0.09467
433.93192,0.08970
432.00334,0.09041
430.07475,0.09154
428.14616,0.08695
426.21758,0.08192
424.28899,0.07490
422.36040,0.06602
420.43182,0.05843
418.50323,0.05221
416.57465,0.04816
414.64606,0.04481
412.71747,0.04118
410.78889,0.03250
408.86030,0.01733
406.93171,0.00863
405.00313,0.00633
403.07454,0.00425
401.14596,0.00000
399.21737,0.00000
