3747.24323,0.00026
3745.31464,0.00214
3743.38605,0.00000
3741.45747,0.00004
3739.52888,0.00255
3737.60030,0.00365
3735.67171,0.00375
3733.74312,0.00362
3731.81454,0.00388
3729.88595,0.00435
3727.95736,0.00596
3726.02878,0.00712
3724.10019,0.00786
3722.17161,0.00961
3720.24302,0.01105
3718.31443,0.01329
3716.38585,0.01593
3714.45726,0.01948
3712.52867,0.02293
3710.60009,0.02505
3708.67150,0.02873
3706.74291,0.03264
3704.81433,0.03715
3702.88574,0.04137
3700.95716,0.04396
3699.02857,0.04643
3697.09998,0.04769
3695.17140,0.04841
3693.24281,0.04868
3691.31422,0.04955
3689.38564,0.05023
3687.45705,0.05000
3685.52846,0.05220
3683.59988,0.05576
3681.67129,0.05942
3679.74271,0.06314
3677.81412,0.06824
3675.88553,0.07250
3673.95695,0.07555
3672.02836,0.08177
3670.09977,0.08715
3668.17119,0.09149
3666.24260,0.09731
3664.31402,0.10283
3662.38543,0.10827
3660.45684,0.11307
3658.52826,0.11830
3656.59967,0.12281
3654.67108,0.12604
3652.74250,0.13113
3650.81391,0.13572
3648.88532,0.13820
3646.95674,0.14085
3645.02815,0.14463
3643.09957,0.14862
3641.17098,0.15216
3639.24239,0.15554
3637.31381,0.15879
3635.38522,0.16236
3633.45663,0.16592
3631.52805,0.17015
3629.59946,0.17320
3627.67088,0.17330
3625.74229,0.17487
3623.81370,0.17700
3621.88512,0.17802
3619.95653,0.17763
3618.02794,0.17489
3616.09936,0.17290
3614.17077,0.17152
3612.24218,0.16966
3610.31360,0.16799
3608.38501,0.16589
3606.45643,0.16392
3604.52784,0.16277
3602.59925,0.16183
3600.67067,0.16064
3598.74208,0.15940
3596.81349,0.15841
3594.88491,0.15740
3592.95632,0.15635
3591.02774,0.15608
3589.09915,0.15594
3587.17056,0.15493
3585.24198,0.15436
3583.31339,0.15456
3581.38480,0.15477
3579.45622,0.15506
3577.52763,0.15542
3575.59904,0.15592
3573.67046,0.15652
3571.74187,0.15736
3569.81329,0.15867
3567.88470,0.15940
3565.95611,0.15919
3564.02753,0.15983
3562.09894,0.16117
3560.17035,0.16201
3558.24177,0.16265
3556.31318,0.16345
3554.38459,0.16461
3552.45601,0.16557
3550.52742,0.16630
3548.59884,0.16746
3546.67025,0.16847
3544.74166,0.16915
3542.81308,0.16992
3540.88449,0.17091
3538.95590,0.17216
3537.02732,0.17328
3535.09873,0.17418
3533.17015,0.17506
3531.24156,0.17608
3529.31297,0.17712
3527.38439,0.17806
3525.45580,0.17894
3523.52721,0.17979
3521.59863,0.18077
3519.67004,0.18186
3517.74145,0.18285
3515.81287,0.18365
3513.88428,0.18467
3511.95570,0.18583
3510.02711,0.18677
3508.09852,0.18764
3506.16994,0.18855
3504.24135,0.18963
3502.31276,0.19061
3500.38418,0.19146
3498.45559,0.19247
3496.52701,0.19345
3494.59842,0.19446
3492.66983,0.19536
3490.74125,0.19625
3488.81266,0.19723
3486.88407,0.19803
3484.95549,0.19886
3483.02690,0.19975
3481.09831,0.20046
3479.16973,0.20132
3477.24114,0.20224
3475.31256,0.20286
3473.38397,0.20356
3471.45538,0.20441
3469.52680,0.20526
3467.59821,0.20603
3465.66962,0.20672
3463.74104,0.20764
3461.81245,0.20831
3459.88386,0.20888
3457.95528,0.20975
3456.02669,0.21051
3454.09811,0.21129
3452.16952,0.21200
3450.24093,0.21269
3448.31235,0.21343
3446.38376,0.21392
3444.45517,0.21440
3442.52659,0.21505
3440.59800,0.21572
3438.66942,0.21626
3436.74083,0.21680
3434.81224,0.21749
3432.88366,0.21814
3430.95507,0.21870
3429.02648,0.21923
3427.09790,0.21968
3425.16931,0.22012
3423.24072,0.22072
3421.31214,0.22128
3419.38355,0.22166
3417.45497,0.22203
3415.52638,0.22251
3413.59779,0.22293
3411.66921,0.22327
3409.74062,0.22375
3407.81203,0.22423
3405.88345,0.22458
3403.95486,0.22481
3402.02628,0.22507
3400.09769,0.22542
3398.16910,0.22567
3396.24052,0.22583
3394.31193,0.22604
3392.38334,0.22629
3390.45476,0.22651
3388.52617,0.22681
3386.59758,0.22710
3384.66900,0.22735
3382.74041,0.22758
3380.81183,0.22772
3378.88324,0.22783
3376.95465,0.22788
3375.02607,0.22811
3373.09748,0.22838
3371.16889,0.22842
3369.24031,0.22858
3367.31172,0.22898
3365.38314,0.22940
3363.45455,0.22960
3361.52596,0.22973
3359.59738,0.22990
3357.66879,0.23007
3355.74020,0.23019
3353.81162,0.23025
3351.88303,0.23046
3349.95444,0.23067
3348.02586,0.23083
3346.09727,0.23090
3344.16869,0.23083
3342.24010,0.23083
3340.31151,0.23080
3338.38293,0.23090
3336.45434,0.23107
3334.52575,0.23105
3332.59717,0.23096
3330.66858,0.23090
3328.73999,0.23111
3326.81141,0.23126
3324.88282,0.23107
3322.95424,0.23087
3321.02565,0.23077
3319.09706,0.23080
3317.16848,0.23092
3315.23989,0.23091
3313.31130,0.23070
3311.38272,0.23053
3309.45413,0.23033
3307.52555,0.23004
3305.59696,0.22986
3303.66837,0.22978
3301.73979,0.22969
3299.81120,0.22952
3297.88261,0.22928
3295.95403,0.22914
3294.02544,0.22897
3292.09685,0.22867
3290.16827,0.22829
3288.23968,0.22778
3286.31110,0.22735
3284.38251,0.22701
3282.45392,0.22644
3280.52534,0.22573
3278.59675,0.22509
3276.66816,0.22453
3274.73958,0.22402
3272.81099,0.22334
3270.88241,0.22254
3268.95382,0.22173
3267.02523,0.22081
3265.09665,0.21999
3263.16806,0.21919
3261.23947,0.21816
3259.31089,0.21713
3257.38230,0.21626
3255.45371,0.21531
3253.52513,0.21417
3251.59654,0.21314
3249.66796,0.21228
3247.73937,0.21146
3245.81078,0.21056
3243.88220,0.20957
3241.95361,0.20870
3240.02502,0.20787
3238.09644,0.20694
3236.16785,0.20600
3234.23927,0.20508
3232.31068,0.20412
3230.38209,0.20329
3228.45351,0.20260
3226.52492,0.20179
3224.59633,0.20094
3222.66775,0.20007
3220.73916,0.19917
3218.81057,0.19846
3216.88199,0.19782
3214.95340,0.19705
3213.02482,0.19609
3211.09623,0.19510
3209.16764,0.19431
3207.23906,0.19355
3205.31047,0.19265
3203.38188,0.19176
3201.45330,0.19101
3199.52471,0.19025
3197.59612,0.18938
3195.66754,0.18849
3193.73895,0.18750
3191.81037,0.18648
3189.88178,0.18569
3187.95319,0.18486
3186.02461,0.18392
3184.09602,0.18306
3182.16743,0.18223
3180.23885,0.18132
3178.31026,0.18032
3176.38168,0.17940
3174.45309,0.17861
3172.52450,0.17771
3170.59592,0.17676
3168.66733,0.17595
3166.73874,0.17516
3164.81016,0.17420
3162.88157,0.17328
3160.95298,0.17250
3159.02440,0.17171
3157.09581,0.17082
3155.16723,0.16991
3153.23864,0.16914
3151.31005,0.16837
3149.38147,0.16764
3147.45288,0.16701
3145.52429,0.16629
3143.59571,0.16555
3141.66712,0.16480
3139.73854,0.16404
3137.80995,0.16338
3135.88136,0.16275
3133.95278,0.16207
3132.02419,0.16137
3130.09560,0.16093
3128.16702,0.16055
3126.23843,0.16002
3124.30984,0.15949
3122.38126,0.15891
3120.45267,0.15837
3118.52409,0.15789
3116.59550,0.15735
3114.66691,0.15692
3112.73833,0.15657
3110.80974,0.15608
3108.88115,0.15553
3106.95257,0.15510
3105.02398,0.15477
3103.09540,0.15443
3101.16681,0.15403
3099.23822,0.15353
3097.30964,0.15305
3095.38105,0.15271
3093.45246,0.15239
3091.52388,0.15205
3089.59529,0.15169
3087.66670,0.15129
3085.73812,0.15086
3083.80953,0.15039
3081.88095,0.14990
3079.95236,0.14950
3078.02377,0.14917
3076.09519,0.14869
3074.16660,0.14811
3072.23801,0.14774
3070.30943,0.14733
3068.38084,0.14669
3066.45225,0.14606
3064.52367,0.14540
3062.59508,0.14471
3060.66650,0.14416
3058.73791,0.14356
3056.80932,0.14285
3054.88074,0.14212
3052.95215,0.14143
3051.02356,0.14080
3049.09498,0.14008
3047.16639,0.13934
3045.23781,0.13869
3043.30922,0.13811
3041.38063,0.13758
3039.45205,0.13698
3037.52346,0.13641
3035.59487,0.13583
3033.66629,0.13533
3031.73770,0.13495
3029.80911,0.13444
3027.88053,0.13384
3025.95194,0.13330
3024.02336,0.13294
3022.09477,0.13260
3020.16618,0.13225
3018.23760,0.13203
3016.30901,0.13182
3014.38042,0.13173
3012.45184,0.13180
3010.52325,0.13192
3008.59467,0.13203
3006.66608,0.13218
3004.73749,0.13255
3002.80891,0.13294
3000.88032,0.13332
2998.95173,0.13396
2997.02315,0.13470
2995.09456,0.13542
2993.16597,0.13633
2991.23739,0.13744
2989.30880,0.13860
2987.38022,0.13992
2985.45163,0.14145
2983.52304,0.14312
2981.59446,0.14496
2979.66587,0.14692
2977.73728,0.14890
2975.80870,0.15089
2973.88011,0.15291
2971.95153,0.15516
2970.02294,0.15756
2968.09435,0.15991
2966.16577,0.16234
2964.23718,0.16488
2962.30859,0.16733
2960.38001,0.16962
2958.45142,0.17187
2956.52283,0.17414
2954.59425,0.17630
2952.66566,0.17826
2950.73708,0.18033
2948.80849,0.18277
2946.87990,0.18573
2944.95132,0.18928
2943.02273,0.19342
2941.09414,0.19816
2939.16556,0.20327
2937.23697,0.20859
2935.30838,0.21390
2933.37980,0.21902
2931.45121,0.22402
2929.52263,0.22863
2927.59404,0.23259
2925.66545,0.23576
2923.73687,0.23779
2921.80828,0.23830
2919.87969,0.23691
2917.95111,0.23291
2916.02252,0.22553
2914.09394,0.21559
2912.16535,0.20568
2910.23676,0.19767
2908.30818,0.19150
2906.37959,0.18656
2904.45100,0.18245
2902.52242,0.17886
2900.59383,0.17553
2898.66524,0.17245
2896.73666,0.16959
2894.80807,0.16681
2892.87949,0.16402
2890.95090,0.16129
2889.02231,0.15877
2887.09373,0.15639
2885.16514,0.15424
2883.23655,0.15254
2881.30797,0.15123
2879.37938,0.15032
2877.45080,0.14976
2875.52221,0.14962
2873.59362,0.14987
2871.66504,0.15012
2869.73645,0.15051
2867.80786,0.15120
2865.87928,0.15243
2863.95069,0.15478
2862.02210,0.15848
2860.09352,0.16358
2858.16493,0.16978
2856.23635,0.17623
2854.30776,0.18162
2852.37917,0.18434
2850.45059,0.18230
2848.52200,0.17413
2846.59341,0.16208
2844.66483,0.14985
2842.73624,0.13914
2840.80766,0.13038
2838.87907,0.12346
2836.95048,0.11794
2835.02190,0.11351
2833.09331,0.11000
2831.16472,0.10703
2829.23614,0.10433
2827.30755,0.10203
2825.37896,0.10008
2823.45038,0.09823
2821.52179,0.09651
2819.59321,0.09500
2817.66462,0.09358
2815.73603,0.09223
2813.80745,0.09102
2811.87886,0.08983
2809.95027,0.08871
2808.02169,0.08762
2806.09310,0.08661
2804.16451,0.08576
2802.23593,0.08487
2800.30734,0.08389
2798.37876,0.08298
2796.45017,0.08219
2794.52158,0.08146
2792.59300,0.08075
2790.66441,0.08000
2788.73582,0.07918
2786.80724,0.07844
2784.87865,0.07775
2782.95007,0.07705
2781.02148,0.07645
2779.09289,0.07585
2777.16431,0.07519
2775.23572,0.07460
2773.30713,0.07411
2771.37855,0.07363
2769.44996,0.07307
2767.52137,0.07258
2765.59279,0.07220
2763.66420,0.07178
2761.73562,0.07132
2759.80703,0.07084
2757.87844,0.07038
2755.94986,0.06998
2754.02127,0.06953
2752.09268,0.06910
2750.16410,0.06882
2748.23551,0.06850
2746.30693,0.06810
2744.37834,0.06776
2742.44975,0.06739
2740.52117,0.06710
2738.59258,0.06678
2736.66399,0.06638
2734.73541,0.06605
2732.80682,0.06568
2730.87823,0.06525
2728.94965,0.06485
2727.02106,0.06452
2725.09248,0.06421
2723.16389,0.06372
2721.23530,0.06320
2719.30672,0.06276
2717.37813,0.06233
2715.44954,0.06195
2713.52096,0.06150
2711.59237,0.06102
2709.66379,0.06067
2707.73520,0.06032
2705.80661,0.05982
2703.87803,0.05943
2701.94944,0.05922
2700.02085,0.05893
2698.09227,0.05857
2696.16368,0.05823
2694.23509,0.05788
2692.30651,0.05757
2690.37792,0.05733
2688.44934,0.05707
2686.52075,0.05675
2684.59216,0.05640
2682.66358,0.05607
2680.73499,0.05578
2678.80640,0.05540
2676.87782,0.05504
2674.94923,0.05478
2673.02064,0.05441
2671.09206,0.05408
2669.16347,0.05381
2667.23489,0.05345
2665.30630,0.05309
2663.37771,0.05272
2661.44913,0.05234
2659.52054,0.05201
2657.59195,0.05173
2655.66337,0.05146
2653.73478,0.05116
2651.80620,0.05078
2649.87761,0.05035
2647.94902,0.05005
2646.02044,0.04982
2644.09185,0.04955
2642.16326,0.04921
2640.23468,0.04888
2638.30609,0.04859
2636.37750,0.04831
2634.44892,0.04804
2632.52033,0.04771
2630.59175,0.04743
2628.66316,0.04711
2626.73457,0.04668
2624.80599,0.04631
2622.87740,0.04603
2620.94881,0.04585
2619.02023,0.04552
2617.09164,0.04502
2615.16306,0.04469
2613.23447,0.04448
2611.30588,0.04421
2609.37730,0.04384
2607.44871,0.04351
2605.52012,0.04316
2603.59154,0.04279
2601.66295,0.04249
2599.73436,0.04216
2597.80578,0.04186
2595.87719,0.04155
2593.94861,0.04121
2592.02002,0.04095
2590.09143,0.04067
2588.16285,0.04031
2586.23426,0.03995
2584.30567,0.03962
2582.37709,0.03931
2580.44850,0.03904
2578.51991,0.03880
2576.59133,0.03844
2574.66274,0.03805
2572.73416,0.03776
2570.80557,0.03747
2568.87698,0.03715
2566.94840,0.03685
2565.01981,0.03661
2563.09122,0.03635
2561.16264,0.03612
2559.23405,0.03592
2557.30547,0.03560
2555.37688,0.03528
2553.44829,0.03500
2551.51971,0.03475
2549.59112,0.03453
2547.66253,0.03429
2545.73395,0.03409
2543.80536,0.03389
2541.87677,0.03364
2539.94819,0.03340
2538.01960,0.03319
2536.09102,0.03293
2534.16243,0.03266
2532.23384,0.03247
2530.30526,0.03223
2528.37667,0.03197
2526.44808,0.03174
2524.51950,0.03151
2522.59091,0.03126
2520.66233,0.03099
2518.73374,0.03077
2516.80515,0.03057
2514.87657,0.03031
2512.94798,0.03003
2511.01939,0.02972
2509.09081,0.02938
2507.16222,0.02914
2505.23363,0.02895
2503.30505,0.02870
2501.37646,0.02838
2499.44788,0.02810
2497.51929,0.02784
2495.59070,0.02748
2493.66212,0.02715
2491.73353,0.02689
2489.80494,0.02663
2487.87636,0.02633
2485.94777,0.02604
2484.01919,0.02579
2482.09060,0.02551
2480.16201,0.02522
2478.23343,0.02499
2476.30484,0.02473
2474.37625,0.02440
2472.44767,0.02412
2470.51908,0.02390
2468.59049,0.02368
2466.66191,0.02335
2464.73332,0.02299
2462.80474,0.02272
2460.87615,0.02239
2458.94756,0.02207
2457.01898,0.02182
2455.09039,0.02148
2453.16180,0.02116
2451.23322,0.02092
2449.30463,0.02070
2447.37604,0.02043
2445.44746,0.02013
2443.51887,0.01987
2441.59029,0.01964
2439.66170,0.01944
2437.73311,0.01921
2435.80453,0.01890
2433.87594,0.01855
2431.94735,0.01825
2430.01877,0.01803
2428.09018,0.01771
2426.16160,0.01737
2424.23301,0.01710
2422.30442,0.01690
2420.37584,0.01675
2418.44725,0.01645
2416.51866,0.01616
2414.59008,0.01596
2412.66149,0.01570
2410.73290,0.01545
2408.80432,0.01521
2406.87573,0.01497
2404.94715,0.01477
2403.01856,0.01453
2401.08997,0.01424
2399.16139,0.01399
2397.23280,0.01377
2395.30421,0.01351
2393.37563,0.01329
2391.44704,0.01307
2389.51846,0.01285
2387.58987,0.01265
2385.66128,0.01244
2383.73270,0.01224
2381.80411,0.01206
2379.87552,0.01189
2377.94694,0.01175
2376.01835,0.01162
2374.08976,0.01148
2372.16118,0.01127
2370.23259,0.01096
2368.30401,0.01069
2366.37542,0.01044
2364.44683,0.01002
2362.51825,0.00962
2360.58966,0.00930
2358.66107,0.00902
2356.73249,0.00879
2354.80390,0.00843
2352.87532,0.00807
2350.94673,0.00801
2349.01814,0.00847
2347.08956,0.00892
2345.16097,0.00876
2343.23238,0.00837
2341.30380,0.00820
2339.37521,0.00807
2337.44662,0.00779
2335.51804,0.00749
2333.58945,0.00725
2331.66087,0.00700
2329.73228,0.00679
2327.80369,0.00660
2325.87511,0.00652
2323.94652,0.00641
2322.01793,0.00621
2320.08935,0.00608
2318.16076,0.00596
2316.23217,0.00592
2314.30359,0.00588
2312.37500,0.00577
2310.44642,0.00565
2308.51783,0.00550
2306.58924,0.00538
2304.66066,0.00526
2302.73207,0.00514
2300.80348,0.00504
2298.87490,0.00487
2296.94631,0.00469
2295.01773,0.00458
2293.08914,0.00449
2291.16055,0.00438
2289.23197,0.00425
2287.30338,0.00413
2285.37479,0.00401
2283.44621,0.00392
2281.51762,0.00388
2279.58903,0.00383
2277.66045,0.00370
2275.73186,0.00351
2273.80328,0.00337
2271.87469,0.00334
2269.94610,0.00327
2268.01752,0.00316
2266.08893,0.00305
2264.16034,0.00298
2262.23176,0.00296
2260.30317,0.00288
2258.37459,0.00275
2256.44600,0.00259
2254.51741,0.00258
2252.58883,0.00262
2250.66024,0.00257
2248.73165,0.00251
2246.80307,0.00239
2244.87448,0.00232
2242.94589,0.00230
2241.01731,0.00225
2239.08872,0.00215
2237.16014,0.00200
2235.23155,0.00188
2233.30296,0.00180
2231.37438,0.00173
2229.44579,0.00165
2227.51720,0.00154
2225.58862,0.00146
2223.66003,0.00147
2221.73145,0.00139
2219.80286,0.00122
2217.87427,0.00117
2215.94569,0.00107
2214.01710,0.00096
2212.08851,0.00088
2210.15993,0.00076
2208.23134,0.00071
2206.30275,0.00069
2204.37417,0.00066
2202.44558,0.00058
2200.51700,0.00047
2198.58841,0.00037
2196.65982,0.00028
2194.73124,0.00028
2192.80265,0.00025
2190.87406,0.00021
2188.94548,0.00022
2187.01689,0.00028
2185.08830,0.00033
2183.15972,0.00031
2181.23113,0.00028
2179.30255,0.00028
2177.37396,0.00032
2175.44537,0.00024
2173.51679,0.00016
2171.58820,0.00012
2169.65961,0.00000
2167.73103,0.00010
2165.80244,0.00026
2163.87386,0.00026
2161.94527,0.00027
2160.01668,0.00024
2158.08810,0.00026
2156.15951,0.00032
2154.23092,0.00035
2152.30234,0.00028
2150.37375,0.00022
2148.44516,0.00032
2146.51658,0.00039
2144.58799,0.00040
2142.65941,0.00043
2140.73082,0.00041
2138.80223,0.00036
2136.87365,0.00029
2134.94506,0.00030
2133.01647,0.00031
2131.08789,0.00028
2129.15930,0.00020
2127.23072,0.00007
2125.30213,0.00003
2123.37354,-0.00000
2121.44496,-0.00002
2119.51637,-0.00003
2117.58778,-0.00004
2115.65920,-0.00000
2113.73061,-0.00003
2111.80202,-0.00010
2109.87344,-0.00012
2107.94485,-0.00013
2106.01627,-0.00010
2104.08768,-0.00006
2102.15909,-0.00007
2100.23051,-0.00005
2098.30192,0.00000
2096.37333,-0.00000
2094.44475,-0.00001
2092.51616,0.00004
2090.58758,0.00003
2088.65899,-0.00001
2086.73040,0.00002
2084.80182,0.00005
2082.87323,0.00005
2080.94464,0.00005
2079.01606,0.00000
2077.08747,-0.00007
2075.15888,-0.00006
2073.23030,-0.00006
2071.30171,-0.00008
2069.37313,-0.00010
2067.44454,-0.00013
2065.51595,-0.00022
2063.58737,-0.00024
2061.65878,-0.00013
2059.73019,-0.00013
2057.80161,-0.00014
2055.87302,-0.00011
2053.94443,-0.00011
2052.01585,-0.00006
2050.08726,0.00003
2048.15868,0.00015
2046.23009,0.00030
2044.30150,0.00055
2042.37292,0.00081
2040.44433,0.00099
2038.51574,0.00120
2036.58716,0.00146
2034.65857,0.00169
2032.72999,0.00192
2030.80140,0.00212
2028.87281,0.00225
2026.94423,0.00236
2025.01564,0.00242
2023.08705,0.00246
2021.15847,0.00246
2019.22988,0.00248
2017.30129,0.00258
2015.37271,0.00272
2013.44412,0.00303
2011.51554,0.00338
2009.58695,0.00364
2007.65836,0.00389
2005.72978,0.00413
2003.80119,0.00430
2001.87260,0.00431
1999.94402,0.00427
1998.01543,0.00422
1996.08685,0.00424
1994.15826,0.00433
1992.22967,0.00418
1990.30109,0.00392
1988.37250,0.00376
1986.44391,0.00361
1984.51533,0.00352
1982.58674,0.00344
1980.65815,0.00328
1978.72957,0.00314
1976.80098,0.00311
1974.87240,0.00299
1972.94381,0.00282
1971.01522,0.00271
1969.08664,0.00250
1967.15805,0.00216
1965.22946,0.00181
1963.30088,0.00158
1961.37229,0.00137
1959.44371,0.00118
1957.51512,0.00104
1955.58653,0.00092
1953.65795,0.00084
1951.72936,0.00077
1949.80077,0.00072
1947.87219,0.00067
1945.94360,0.00060
1944.01501,0.00055
1942.08643,0.00032
1940.15784,0.00010
1938.22926,0.00007
1936.30067,0.00003
1934.37208,-0.00002
1932.44350,-0.00008
1930.51491,-0.00008
1928.58632,-0.00010
1926.65774,-0.00012
1924.72915,0.00000
1922.80056,-0.00012
1920.87198,-0.00006
1918.94339,0.00027
1917.01481,0.00035
1915.08622,0.00072
1913.15763,0.00136
1911.22905,0.00192
1909.30046,0.00249
1907.37187,0.00303
1905.44329,0.00372
1903.51470,0.00443
1901.58612,0.00509
1899.65753,0.00574
1897.72894,0.00641
1895.80036,0.00710
1893.87177,0.00758
1891.94318,0.00826
1890.01460,0.00884
1888.08601,0.00904
1886.15742,0.00946
1884.22884,0.00987
1882.30025,0.01013
1880.37167,0.01035
1878.44308,0.01058
1876.51449,0.01077
1874.58591,0.01069
1872.65732,0.01077
1870.72873,0.01100
1868.80015,0.01078
1866.87156,0.01026
1864.94298,0.00990
1863.01439,0.00939
1861.08580,0.00857
1859.15722,0.00772
1857.22863,0.00667
1855.30004,0.00560
1853.37146,0.00448
1851.44287,0.00350
1849.51428,0.00266
1847.58570,0.00198
1845.65711,0.00168
1843.72853,0.00075
1841.79994,0.00000
1839.87135,-0.00008
1837.94277,-0.00036
1836.01418,-0.00065
1834.08559,-0.00076
1832.15701,-0.00053
1830.22842,-0.00054
1828.29984,-0.00064
1826.37125,-0.00030
1824.44266,-0.00020
1822.51408,0.00011
1820.58549,0.00069
1818.65690,0.00116
1816.72832,0.00168
1814.79973,0.00229
1812.87114,0.00313
1810.94256,0.00391
1809.01397,0.00474
1807.08539,0.00582
1805.15680,0.00696
1803.22821,0.00821
1801.29963,0.00948
1799.37104,0.01068
1797.44245,0.01210
1795.51387,0.01391
1793.58528,0.01571
1791.65669,0.01706
1789.72811,0.01854
1787.79952,0.02061
1785.87094,0.02254
1783.94235,0.02441
1782.01376,0.02640
1780.08518,0.02815
1778.15659,0.03003
1776.22800,0.03211
1774.29942,0.03414
1772.37083,0.03541
1770.44225,0.03666
1768.51366,0.03866
1766.58507,0.04031
1764.65649,0.04236
1762.72790,0.04442
1760.79931,0.04601
1758.87073,0.04845
1756.94214,0.05089
1755.01355,0.05348
1753.08497,0.05677
1751.15638,0.05992
1749.22780,0.06310
1747.29921,0.06684
1745.37062,0.07090
1743.44204,0.07516
1741.51345,0.07965
1739.58486,0.08381
1737.65628,0.08803
1735.72769,0.09248
1733.79911,0.09528
1731.87052,0.09762
1729.94193,0.10100
1728.01335,0.10389
1726.08476,0.10696
1724.15617,0.11013
1722.22759,0.11323
1720.29900,0.11707
1718.37041,0.12021
1716.44183,0.12244
1714.51324,0.12489
1712.58466,0.12772
1710.65607,0.13039
1708.72748,0.13282
1706.79890,0.13534
1704.87031,0.13744
1702.94172,0.14048
1701.01314,0.14337
1699.08455,0.14503
1697.15596,0.14831
1695.22738,0.15088
1693.29879,0.15333
1691.37021,0.15718
1689.44162,0.16003
1687.51303,0.16350
1685.58445,0.16682
1683.65586,0.16845
1681.72727,0.17131
1679.79869,0.17467
1677.87010,0.17801
1675.94152,0.18082
1674.01293,0.18287
1672.08434,0.18554
1670.15576,0.18775
1668.22717,0.18909
1666.29858,0.19095
1664.37000,0.19307
1662.44141,0.19396
1660.51282,0.19468
1658.58424,0.19575
1656.65565,0.19682
1654.72707,0.19800
1652.79848,0.19598
1650.86989,0.19439
1648.94131,0.19563
1647.01272,0.19541
1645.08413,0.19424
1643.15555,0.19405
1641.22696,0.19419
1639.29838,0.19435
1637.36979,0.19482
1635.44120,0.19403
1633.51262,0.19285
1631.58403,0.19306
1629.65544,0.19251
1627.72686,0.19117
1625.79827,0.18955
1623.86968,0.18739
1621.94110,0.18462
1620.01251,0.18260
1618.08393,0.18114
1616.15534,0.17786
1614.22675,0.17533
1612.29817,0.17392
1610.36958,0.17217
1608.44099,0.17026
1606.51241,0.16824
1604.58382,0.16647
1602.65524,0.16435
1600.72665,0.16235
1598.79806,0.16044
1596.86948,0.15857
1594.94089,0.15675
1593.01230,0.15479
1591.08372,0.15289
1589.15513,0.15070
1587.22654,0.14871
1585.29796,0.14669
1583.36937,0.14473
1581.44079,0.14283
1579.51220,0.14129
1577.58361,0.14012
1575.65503,0.13765
1573.72644,0.13614
1571.79785,0.13614
1569.86927,0.13524
1567.94068,0.13425
1566.01209,0.13427
1564.08351,0.13431
1562.15492,0.13507
1560.22634,0.13572
1558.29775,0.13409
1556.36916,0.13409
1554.44058,0.13506
1552.51199,0.13514
1550.58340,0.13556
1548.65482,0.13561
1546.72623,0.13579
1544.79765,0.13564
1542.86906,0.13534
1540.94047,0.13501
1539.01189,0.13274
1537.08330,0.13184
1535.15471,0.13196
1533.22613,0.13079
1531.29754,0.12937
1529.36895,0.12855
1527.44037,0.12763
1525.51178,0.12616
1523.58320,0.12547
1521.65461,0.12447
1519.72602,0.12332
1517.79744,0.12317
1515.86885,0.12201
1513.94026,0.12007
1512.01168,0.11745
1510.08309,0.11458
1508.15451,0.11192
1506.22592,0.10692
1504.29733,0.10209
1502.36875,0.09927
1500.44016,0.09608
1498.51157,0.09256
1496.58299,0.08881
1494.65440,0.08527
1492.72581,0.08298
1490.79723,0.08070
1488.86864,0.07831
1486.94006,0.07681
1485.01147,0.07584
1483.08288,0.07554
1481.15430,0.07594
1479.22571,0.07709
1477.29712,0.07932
1475.36854,0.08253
1473.43995,0.08696
1471.51137,0.09241
1469.58278,0.09846
1467.65419,0.10386
1465.72561,0.10670
1463.79702,0.10766
1461.86843,0.10831
1459.93985,0.10958
1458.01126,0.11077
1456.08267,0.11048
1454.15409,0.11045
1452.22550,0.11066
1450.29692,0.11050
1448.36833,0.11026
1446.43974,0.10966
1444.51116,0.10947
1442.58257,0.10930
1440.65398,0.10904
1438.72540,0.10928
1436.79681,0.10888
1434.86822,0.10824
1432.93964,0.10835
1431.01105,0.10830
1429.08247,0.10787
1427.15388,0.10785
1425.22529,0.10806
1423.29671,0.10816
1421.36812,0.10864
1419.43953,0.10864
1417.51095,0.10799
1415.58236,0.10802
1413.65378,0.10794
1411.72519,0.10751
1409.79660,0.10700
1407.86802,0.10640
1405.93943,0.10586
1404.01084,0.10491
1402.08226,0.10412
1400.15367,0.10308
1398.22508,0.10151
1396.29650,0.10036
1394.36791,0.09922
1392.43933,0.09808
1390.51074,0.09713
1388.58215,0.09549
1386.65357,0.09198
1384.72498,0.08898
1382.79639,0.09045
1380.86781,0.09444
1378.93922,0.09693
1377.01064,0.09759
1375.08205,0.09737
1373.15346,0.09658
1371.22488,0.09568
1369.29629,0.09474
1367.36770,0.09333
1365.43912,0.09192
1363.51053,0.09048
1361.58194,0.08885
1359.65336,0.08753
1357.72477,0.08658
1355.79619,0.08583
1353.86760,0.08497
1351.93901,0.08412
1350.01043,0.08343
1348.08184,0.08280
1346.15325,0.08219
1344.22467,0.08170
1342.29608,0.08138
1340.36750,0.08090
1338.43891,0.08016
1336.51032,0.07952
1334.58174,0.07904
1332.65315,0.07861
1330.72456,0.07816
1328.79598,0.07780
1326.86739,0.07755
1324.93880,0.07735
1323.01022,0.07707
1321.08163,0.07677
1319.15305,0.07658
1317.22446,0.07637
1315.29587,0.07613
1313.36729,0.07582
1311.43870,0.07557
1309.51011,0.07530
1307.58153,0.07489
1305.65294,0.07460
1303.72435,0.07441
1301.79577,0.07434
1299.86718,0.07448
1297.93860,0.07459
1296.01001,0.07470
1294.08142,0.07498
1292.15284,0.07550
1290.22425,0.07633
1288.29566,0.07747
1286.36708,0.07870
1284.43849,0.07995
1282.50991,0.08129
1280.58132,0.08278
1278.65273,0.08439
1276.72415,0.08597
1274.79556,0.08754
1272.86697,0.08922
1270.93839,0.09095
1269.00980,0.09279
1267.08121,0.09496
1265.15263,0.09738
1263.22404,0.10002
1261.29546,0.10296
1259.36687,0.10624
1257.43828,0.10998
1255.50970,0.11432
1253.58111,0.11911
1251.65252,0.12393
1249.72394,0.12865
1247.79535,0.13348
1245.86677,0.13820
1243.93818,0.14264
1242.00959,0.14669
1240.08101,0.15043
1238.15242,0.15404
1236.22383,0.15733
1234.29525,0.16039
1232.36666,0.16319
1230.43807,0.16568
1228.50949,0.16805
1226.58090,0.17033
1224.65232,0.17257
1222.72373,0.17485
1220.79514,0.17733
1218.86656,0.17987
1216.93797,0.18218
1215.00938,0.18469
1213.08080,0.18751
1211.15221,0.19018
1209.22363,0.19280
1207.29504,0.19547
1205.36645,0.19807
1203.43787,0.20052
1201.50928,0.20269
1199.58069,0.20481
1197.65211,0.20677
1195.72352,0.20854
1193.79493,0.21056
1191.86635,0.21267
1189.93776,0.21471
1188.00918,0.21658
1186.08059,0.21827
1184.15200,0.22016
1182.22342,0.22231
1180.29483,0.22485
1178.36624,0.22758
1176.43766,0.23024
1174.50907,0.23317
1172.58048,0.23646
1170.65190,0.23975
1168.72331,0.24292
1166.79473,0.24648
1164.86614,0.25004
1162.93755,0.25272
1161.00897,0.25444
1159.08038,0.25534
1157.15179,0.25627
1155.22321,0.25752
1153.29462,0.25891
1151.36604,0.26055
1149.43745,0.26244
1147.50886,0.26481
1145.58028,0.26748
1143.65169,0.27035
1141.72310,0.27358
1139.79452,0.27725
1137.86593,0.28112
1135.93734,0.28520
1134.00876,0.28950
1132.08017,0.29342
1130.15159,0.29761
1128.22300,0.30291
1126.29441,0.30873
1124.36583,0.31409
1122.43724,0.31948
1120.50865,0.32562
1118.58007,0.33184
1116.65148,0.33806
1114.72290,0.34425
1112.79431,0.35059
1110.86572,0.35709
1108.93714,0.36316
1107.00855,0.36847
1105.07996,0.37268
1103.15138,0.37642
1101.22279,0.37966
1099.29420,0.38224
1097.36562,0.38445
1095.43703,0.38621
1093.50845,0.38734
1091.57986,0.38745
1089.65127,0.38756
1087.72269,0.38761
1085.79410,0.38736
1083.86551,0.38686
1081.93693,0.38577
1080.00834,0.38520
1078.07976,0.38473
1076.15117,0.38408
1074.22258,0.38374
1072.29400,0.38317
1070.36541,0.38262
1068.43682,0.38254
1066.50824,0.38306
1064.57965,0.38391
1062.65106,0.38453
1060.72248,0.38399
1058.79389,0.38265
1056.86531,0.38148
1054.93672,0.38062
1053.00813,0.37990
1051.07955,0.37877
1049.15096,0.37847
1047.22237,0.37970
1045.29379,0.38175
1043.36520,0.38435
1041.43661,0.38727
1039.50803,0.39083
1037.57944,0.39411
1035.65086,0.39636
1033.72227,0.39795
1031.79368,0.39857
1029.86510,0.39789
1027.93651,0.39629
1026.00792,0.39407
1024.07934,0.39096
1022.15075,0.38786
1020.22217,0.38518
1018.29358,0.38262
1016.36499,0.38012
1014.43641,0.37726
1012.50782,0.37458
1010.57923,0.37189
1008.65065,0.36862
1006.72206,0.36491
1004.79347,0.36078
1002.86489,0.35632
1000.93630,0.35146
999.00772,0.34609
997.07913,0.34039
995.15054,0.33468
993.22196,0.32872
991.29337,0.32236
989.36478,0.31586
987.43620,0.30893
985.50761,0.30129
983.57903,0.29281
981.65044,0.28372
979.72185,0.27392
977.79327,0.26318
975.86468,0.25212
973.93609,0.24105
972.00751,0.22995
970.07892,0.21900
968.15033,0.20846
966.22175,0.19834
964.29316,0.18887
962.36458,0.18050
960.43599,0.17299
958.50740,0.16615
956.57882,0.16004
954.65023,0.15465
952.72164,0.14990
950.79306,0.14570
948.86447,0.14209
946.93589,0.13901
945.00730,0.13656
943.07871,0.13469
941.15013,0.13312
939.22154,0.13159
937.29295,0.12993
935.36437,0.12833
933.43578,0.12695
931.50719,0.12598
929.57861,0.12474
927.65002,0.12319
925.72144,0.12223
923.79285,0.12167
921.86426,0.12126
919.93568,0.12107
918.00709,0.12112
916.07850,0.12123
914.14992,0.12053
912.22133,0.11865
910.29274,0.11549
908.36416,0.11089
906.43557,0.10488
904.50699,0.09791
902.57840,0.09074
900.64981,0.08383
898.72123,0.07704
896.79264,0.07036
894.86405,0.06466
892.93547,0.05955
891.00688,0.05481
889.07830,0.05109
887.14971,0.04744
885.22112,0.04349
883.29254,0.03974
881.36395,0.03603
879.43536,0.03256
877.50678,0.02957
875.57819,0.02640
873.64960,0.02265
871.72102,0.01910
869.79243,0.01584
867.86385,0.01264
865.93526,0.01004
864.00667,0.00762
862.07809,0.00512
860.14950,0.00348
858.22091,0.00245
856.29233,0.00119
854.36374,0.00029
852.43516,0.00000
850.50657,0.00018
848.57798,0.00123
846.64940,0.00258
844.72081,0.00463
842.79222,0.00773
840.86364,0.01099
838.93505,0.01414
837.00646,0.01719
835.07788,0.02092
833.14929,0.02502
831.22071,0.02783
829.29212,0.02954
827.36353,0.03039
825.43495,0.03011
823.50636,0.03002
821.57777,0.03073
819.64919,0.03154
817.72060,0.03259
815.79201,0.03432
813.86343,0.03691
811.93484,0.04094
810.00626,0.04681
808.07767,0.05507
806.14908,0.06505
804.22050,0.07407
802.29191,0.08069
800.36332,0.08453
798.43474,0.08388
796.50615,0.07832
794.57757,0.07144
792.64898,0.06561
790.72039,0.06019
788.79181,0.05660
786.86322,0.05591
784.93463,0.05676
783.00605,0.05882
781.07746,0.06098
779.14887,0.06036
777.22029,0.05585
775.29170,0.04853
773.36312,0.04080
771.43453,0.03481
769.50594,0.03103
767.57736,0.02894
765.64877,0.02791
763.72018,0.02792
761.79160,0.02859
759.86301,0.02894
757.93443,0.02943
756.00584,0.03016
754.07725,0.03029
752.14867,0.02978
750.22008,0.02862
748.29149,0.02673
746.36291,0.02458
744.43432,0.02228
742.50573,0.01945
740.57715,0.01616
738.64856,0.01272
736.71998,0.01019
734.79139,0.00878
732.86280,0.00726
730.93422,0.00634
729.00563,0.00650
727.07704,0.00660
725.14846,0.00660
723.21987,0.00676
721.29129,0.00686
719.36270,0.00597
717.43411,0.00397
715.50553,0.00236
713.57694,0.00208
711.64835,0.00297
709.71977,0.00421
707.79118,0.00516
705.86259,0.00670
703.93401,0.00940
702.00542,0.01292
700.07684,0.01853
698.14825,0.02570
696.21966,0.03009
694.29108,0.02890
692.36249,0.02402
690.43390,0.01910
688.50532,0.01542
686.57673,0.01274
684.64814,0.01103
682.71956,0.01027
680.79097,0.00949
678.86239,0.00789
676.93380,0.00665
675.00521,0.00605
673.07663,0.00519
671.14804,0.00447
669.21945,0.00380
667.29087,0.00238
665.36228,0.00147
663.43370,0.00135
661.50511,0.00058
659.57652,0.00000
657.64794,0.00019
655.71935,0.00070
653.79076,0.00154
651.86218,0.00246
649.93359,0.00326
648.00500,0.00331
646.07642,0.00328
644.14783,0.00362
642.21925,0.00404
640.29066,0.00501
638.36207,0.00521
636.43349,0.00498
634.50490,0.00518
632.57631,0.00539
630.64773,0.00602
628.71914,0.00687
626.79056,0.00749
624.86197,0.00729
622.93338,0.00726
621.00480,0.00759
619.07621,0.00866
617.14762,0.01101
615.21904,0.01198
613.29045,0.01242
611.36186,0.01358
609.43328,0.01462
607.50469,0.01590
605.57611,0.01700
603.64752,0.01783
601.71893,0.02007
599.79035,0.02455
597.86176,0.02738
595.93317,0.02826
594.00459,0.03033
592.07600,0.03286
590.14742,0.03674
588.21883,0.04169
586.29024,0.04591
584.36166,0.05010
582.43307,0.05536
580.50448,0.06100
578.57590,0.06548
576.64731,0.06985
574.71872,0.07469
572.79014,0.07956
570.86155,0.08440
568.93297,0.09025
567.00438,0.09558
565.07579,0.10068
563.14721,0.10962
561.21862,0.11796
559.29003,0.12325
557.36145,0.12726
555.43286,0.13117
553.50427,0.13660
551.57569,0.14050
549.64710,0.14530
547.71852,0.15126
545.78993,0.15583
543.86134,0.16251
541.93276,0.17002
540.00417,0.17556
538.07558,0.18067
536.14700,0.18671
534.21841,0.19129
532.28983,0.19589
530.36124,0.20044
528.43265,0.19979
526.50407,0.19631
524.57548,0.19176
522.64689,0.18719
520.71831,0.18358
518.78972,0.17957
516.86113,0.17448
514.93255,0.16782
513.00396,0.16095
511.07538,0.15373
509.14679,0.14779
507.21820,0.14428
505.28962,0.14390
503.36103,0.14542
501.43244,0.14478
499.50386,0.14601
497.57527,0.15158
495.64669,0.15966
493.71810,0.16849
491.78951,0.17866
489.86093,0.19265
487.93234,0.20625
486.00375,0.21856
484.07517,0.23274
482.14658,0.24655
480.21799,0.25736
478.28941,0.26609
476.36082,0.27166
474.43224,0.27673
472.50365,0.27847
470.57506,0.27167
468.64648,0.26509
466.71789,0.25448
464.78930,0.24009
462.86072,0.22923
460.93213,0.21779
459.00355,0.20013
457.07496,0.17787
455.14637,0.16397
453.21779,0.15648
451.28920,0.14839
449.36061,0.13952
447.43203,0.13415
445.50344,0.13048
443.57485,0.12015
441.64627,0.11281
439.71768,0.11075
437.78910,0.10952
435.86051,0.10687
433.93192,0.10131
432.00334,0.09922
430.07475,0.09748
428.14616,0.09234
426.21758,0.08489
424.28899,0.08085
422.36040,0.07898
420.43182,0.07142
418.50323,0.06132
416.57465,0.05759
414.64606,0.05774
412.71747,0.04751
410.78889,0.02862
408.86030,0.01800
406.93171,0.01635
405.00313,0.00578
403.07454,0.00000
401.14596,0.00309
399.21737,0.00000
