3747.24323,0.00000
3745.31464,0.00112
3743.38605,0.00039
3741.45747,0.00073
3739.52888,0.00216
3737.60030,0.00265
3735.67171,0.00268
3733.74312,0.00297
3731.81454,0.00366
3729.88595,0.00416
3727.95736,0.00503
3726.02878,0.00600
3724.10019,0.00690
3722.17161,0.00831
3720.24302,0.00977
3718.31443,0.01178
3716.38585,0.01403
3714.45726,0.01664
3712.52867,0.01948
3710.60009,0.02206
3708.67150,0.02541
3706.74291,0.02897
3704.81433,0.03269
3702.88574,0.03616
3700.95716,0.03889
3699.02857,0.04144
3697.09998,0.04303
3695.17140,0.04397
3693.24281,0.04445
3691.31422,0.04522
3689.38564,0.04636
3687.45705,0.04751
3685.52846,0.04965
3683.59988,0.05253
3681.67129,0.05593
3679.74271,0.05947
3677.81412,0.06358
3675.88553,0.06759
3673.95695,0.07153
3672.02836,0.07682
3670.09977,0.08151
3668.17119,0.08566
3666.24260,0.09053
3664.31402,0.09524
3662.38543,0.09991
3660.45684,0.10444
3658.52826,0.10880
3656.59967,0.11268
3654.67108,0.11628
3652.74250,0.12020
3650.81391,0.12354
3648.88532,0.12637
3646.95674,0.12924
3645.02815,0.13245
3643.09957,0.13576
3641.17098,0.13870
3639.24239,0.14165
3637.31381,0.14465
3635.38522,0.14748
3633.45663,0.15039
3631.52805,0.15351
3629.59946,0.15582
3627.67088,0.15712
3625.74229,0.15884
3623.81370,0.16038
3621.88512,0.16116
3619.95653,0.16078
3618.02794,0.15919
3616.09936,0.15793
3614.17077,0.15677
3612.24218,0.15546
3610.31360,0.15431
3608.38501,0.15317
3606.45643,0.15216
3604.52784,0.15137
3602.59925,0.15077
3600.67067,0.15001
3598.74208,0.14922
3596.81349,0.14881
3594.88491,0.14838
3592.95632,0.14784
3591.02774,0.14779
3589.09915,0.14796
3587.17056,0.14763
3585.24198,0.14744
3583.31339,0.14790
3581.38480,0.14836
3579.45622,0.14885
3577.52763,0.14959
3575.59904,0.15019
3573.67046,0.15077
3571.74187,0.15159
3569.81329,0.15268
3567.88470,0.15364
3565.95611,0.15430
3564.02753,0.15526
3562.09894,0.15629
3560.17035,0.15708
3558.24177,0.15796
3556.31318,0.15908
3554.38459,0.16024
3552.45601,0.16123
3550.52742,0.16214
3548.59884,0.16306
3546.67025,0.16404
3544.74166,0.16512
3542.81308,0.16623
3540.88449,0.16738
3538.95590,0.16855
3537.02732,0.16959
3535.09873,0.17045
3533.17015,0.17140
3531.24156,0.17258
3529.31297,0.17386
3527.38439,0.17488
3525.45580,0.17570
3523.52721,0.17669
3521.59863,0.17780
3519.67004,0.17892
3517.74145,0.17981
3515.81287,0.18055
3513.88428,0.18160
3511.95570,0.18271
3510.02711,0.18372
3508.09852,0.18468
3506.16994,0.18562
3504.24135,0.18671
3502.31276,0.18787
3500.38418,0.18888
3498.45559,0.18968
3496.52701,0.19053
3494.59842,0.19163
3492.66983,0.19285
3490.74125,0.19391
3488.81266,0.19471
3486.88407,0.19546
3484.95549,0.19621
3483.02690,0.19719
3481.09831,0.19813
3479.16973,0.19881
3477.24114,0.19975
3475.31256,0.20067
3473.38397,0.20123
3471.45538,0.20182
3469.52680,0.20272
3467.59821,0.20353
3465.66962,0.20415
3463.74104,0.20509
3461.81245,0.20603
3459.88386,0.20661
3457.95528,0.20719
3456.02669,0.20803
3454.09811,0.20901
3452.16952,0.20976
3450.24093,0.21020
3448.31235,0.21066
3446.38376,0.21138
3444.45517,0.21220
3442.52659,0.21275
3440.59800,0.21309
3438.66942,0.21366
3436.74083,0.21428
3434.81224,0.21488
3432.88366,0.21558
3430.95507,0.21605
3429.02648,0.21647
3427.09790,0.21708
3425.16931,0.21762
3423.24072,0.21799
3421.31214,0.21848
3419.38355,0.21897
3417.45497,0.21922
3415.52638,0.21970
3413.59779,0.22012
3411.66921,0.22043
3409.74062,0.22087
3407.81203,0.22118
3405.88345,0.22162
3403.95486,0.22183
3402.02628,0.22196
3400.09769,0.22227
3398.16910,0.22242
3396.24052,0.22265
3394.31193,0.22294
3392.38334,0.22326
3390.45476,0.22353
3388.52617,0.22384
3386.59758,0.22409
3384.66900,0.22409
3382.74041,0.22421
3380.81183,0.22435
3378.88324,0.22448
3376.95465,0.22465
3375.02607,0.22481
3373.09748,0.22487
3371.16889,0.22482
3369.24031,0.22504
3367.31172,0.22538
3365.38314,0.22561
3363.45455,0.22570
3361.52596,0.22575
3359.59738,0.22599
3357.66879,0.22609
3355.74020,0.22583
3353.81162,0.22573
3351.88303,0.22595
3349.95444,0.22610
3348.02586,0.22617
3346.09727,0.22613
3344.16869,0.22616
3342.24010,0.22632
3340.31151,0.22613
3338.38293,0.22589
3336.45434,0.22600
3334.52575,0.22603
3332.59717,0.22588
3330.66858,0.22583
3328.73999,0.22583
3326.81141,0.22585
3324.88282,0.22578
3322.95424,0.22562
3321.02565,0.22562
3319.09706,0.22547
3317.16848,0.22532
3315.23989,0.22541
3313.31130,0.22532
3311.38272,0.22520
3309.45413,0.22503
3307.52555,0.22473
3305.59696,0.22464
3303.66837,0.22459
3301.73979,0.22427
3299.81120,0.22397
3297.88261,0.22380
3295.95403,0.22357
3294.02544,0.22334
3292.09685,0.22296
3290.16827,0.22249
3288.23968,0.22207
3286.31110,0.22166
3284.38251,0.22141
3282.45392,0.22101
3280.52534,0.22049
3278.59675,0.21989
3276.66816,0.21910
3274.73958,0.21838
3272.81099,0.21767
3270.88241,0.21689
3268.95382,0.21601
3267.02523,0.21517
3265.09665,0.21438
3263.16806,0.21348
3261.23947,0.21272
3259.31089,0.21195
3257.38230,0.21090
3255.45371,0.20974
3253.52513,0.20870
3251.59654,0.20780
3249.66796,0.20691
3247.73937,0.20601
3245.81078,0.20514
3243.88220,0.20426
3241.95361,0.20337
3240.02502,0.20264
3238.09644,0.20185
3236.16785,0.20085
3234.23927,0.19988
3232.31068,0.19900
3230.38209,0.19821
3228.45351,0.19738
3226.52492,0.19669
3224.59633,0.19604
3222.66775,0.19519
3220.73916,0.19436
3218.81057,0.19339
3216.88199,0.19247
3214.95340,0.19166
3213.02482,0.19075
3211.09623,0.19007
3209.16764,0.18946
3207.23906,0.18862
3205.31047,0.18763
3203.38188,0.18679
3201.45330,0.18606
3199.52471,0.18518
3197.59612,0.18441
3195.66754,0.18366
3193.73895,0.18272
3191.81037,0.18172
3189.88178,0.18077
3187.95319,0.17986
3186.02461,0.17899
3184.09602,0.17821
3182.16743,0.17735
3180.23885,0.17637
3178.31026,0.17535
3176.38168,0.17434
3174.45309,0.17343
3172.52450,0.17261
3170.59592,0.17178
3168.66733,0.17083
3166.73874,0.16992
3164.81016,0.16909
3162.88157,0.16823
3160.95298,0.16738
3159.02440,0.16647
3157.09581,0.16568
3155.16723,0.16491
3153.23864,0.16405
3151.31005,0.16318
3149.38147,0.16242
3147.45288,0.16170
3145.52429,0.16090
3143.59571,0.16020
3141.66712,0.15954
3139.73854,0.15886
3137.80995,0.15823
3135.88136,0.15760
3133.95278,0.15693
3132.02419,0.15612
3130.09560,0.15550
3128.16702,0.15501
3126.23843,0.15436
3124.30984,0.15372
3122.38126,0.15320
3120.45267,0.15269
3118.52409,0.15212
3116.59550,0.15153
3114.66691,0.15099
3112.73833,0.15048
3110.80974,0.15000
3108.88115,0.14955
3106.95257,0.14901
3105.02398,0.14836
3103.09540,0.14790
3101.16681,0.14749
3099.23822,0.14692
3097.30964,0.14636
3095.38105,0.14586
3093.45246,0.14525
3091.52388,0.14462
3089.59529,0.14416
3087.66670,0.14371
3085.73812,0.14330
3083.80953,0.14289
3081.88095,0.14221
3079.95236,0.14160
3078.02377,0.14108
3076.09519,0.14047
3074.16660,0.13994
3072.23801,0.13941
3070.30943,0.13876
3068.38084,0.13802
3066.45225,0.13740
3064.52367,0.13680
3062.59508,0.13600
3060.66650,0.13519
3058.73791,0.13449
3056.80932,0.13380
3054.88074,0.13305
3052.95215,0.13231
3051.02356,0.13164
3049.09498,0.13088
3047.16639,0.13011
3045.23781,0.12944
3043.30922,0.12874
3041.38063,0.12808
3039.45205,0.12754
3037.52346,0.12704
3035.59487,0.12662
3033.66629,0.12606
3031.73770,0.12528
3029.80911,0.12468
3027.88053,0.12434
3025.95194,0.12403
3024.02336,0.12363
3022.09477,0.12318
3020.16618,0.12284
3018.23760,0.12260
3016.30901,0.12244
3014.38042,0.12237
3012.45184,0.12226
3010.52325,0.12218
3008.59467,0.12228
3006.66608,0.12256
3004.73749,0.12293
3002.80891,0.12331
3000.88032,0.12372
2998.95173,0.12426
2997.02315,0.12483
2995.09456,0.12545
2993.16597,0.12639
2991.23739,0.12744
2989.30880,0.12854
2987.38022,0.12981
2985.45163,0.13119
2983.52304,0.13284
2981.59446,0.13470
2979.66587,0.13657
2977.73728,0.13848
2975.80870,0.14054
2973.88011,0.14266
2971.95153,0.14485
2970.02294,0.14722
2968.09435,0.14963
2966.16577,0.15211
2964.23718,0.15468
2962.30859,0.15713
2960.38001,0.15942
2958.45142,0.16151
2956.52283,0.16337
2954.59425,0.16514
2952.66566,0.16688
2950.73708,0.16870
2948.80849,0.17096
2946.87990,0.17378
2944.95132,0.17725
2943.02273,0.18148
2941.09414,0.18609
2939.16556,0.19099
2937.23697,0.19633
2935.30838,0.20189
2933.37980,0.20724
2931.45121,0.21228
2929.52263,0.21691
2927.59404,0.22077
2925.66545,0.22371
2923.73687,0.22530
2921.80828,0.22499
2919.87969,0.22281
2917.95111,0.21835
2916.02252,0.21095
2914.09394,0.20145
2912.16535,0.19208
2910.23676,0.18418
2908.30818,0.17798
2906.37959,0.17319
2904.45100,0.16922
2902.52242,0.16569
2900.59383,0.16245
2898.66524,0.15947
2896.73666,0.15664
2894.80807,0.15393
2892.87949,0.15127
2890.95090,0.14859
2889.02231,0.14606
2887.09373,0.14377
2885.16514,0.14180
2883.23655,0.14015
2881.30797,0.13885
2879.37938,0.13795
2877.45080,0.13733
2875.52221,0.13713
2873.59362,0.13737
2871.66504,0.13777
2869.73645,0.13817
2867.80786,0.13873
2865.87928,0.13981
2863.95069,0.14192
2862.02210,0.14555
2860.09352,0.15057
2858.16493,0.15647
2856.23635,0.16249
2854.30776,0.16739
2852.37917,0.16961
2850.45059,0.16727
2848.52200,0.15927
2846.59341,0.14762
2844.66483,0.13590
2842.73624,0.12584
2840.80766,0.11757
2838.87907,0.11087
2836.95048,0.10541
2835.02190,0.10110
2833.09331,0.09768
2831.16472,0.09483
2829.23614,0.09232
2827.30755,0.09003
2825.37896,0.08801
2823.45038,0.08621
2821.52179,0.08458
2819.59321,0.08309
2817.66462,0.08172
2815.73603,0.08042
2813.80745,0.07918
2811.87886,0.07807
2809.95027,0.07704
2808.02169,0.07594
2806.09310,0.07486
2804.16451,0.07393
2802.23593,0.07311
2800.30734,0.07232
2798.37876,0.07151
2796.45017,0.07067
2794.52158,0.06985
2792.59300,0.06907
2790.66441,0.06834
2788.73582,0.06770
2786.80724,0.06705
2784.87865,0.06632
2782.95007,0.06564
2781.02148,0.06504
2779.09289,0.06443
2777.16431,0.06388
2775.23572,0.06335
2773.30713,0.06285
2771.37855,0.06236
2769.44996,0.06174
2767.52137,0.06122
2765.59279,0.06083
2763.66420,0.06037
2761.73562,0.05996
2759.80703,0.05957
2757.87844,0.05918
2755.94986,0.05881
2754.02127,0.05843
2752.09268,0.05806
2750.16410,0.05773
2748.23551,0.05740
2746.30693,0.05697
2744.37834,0.05664
2742.44975,0.05643
2740.52117,0.05614
2738.59258,0.05579
2736.66399,0.05541
2734.73541,0.05506
2732.80682,0.05478
2730.87823,0.05448
2728.94965,0.05404
2727.02106,0.05345
2725.09248,0.05300
2723.16389,0.05270
2721.23530,0.05231
2719.30672,0.05184
2717.37813,0.05141
2715.44954,0.05109
2713.52096,0.05079
2711.59237,0.05037
2709.66379,0.04988
2707.73520,0.04949
2705.80661,0.04917
2703.87803,0.04881
2701.94944,0.04845
2700.02085,0.04817
2698.09227,0.04787
2696.16368,0.04750
2694.23509,0.04721
2692.30651,0.04696
2690.37792,0.04672
2688.44934,0.04646
2686.52075,0.04615
2684.59216,0.04588
2682.66358,0.04561
2680.73499,0.04530
2678.80640,0.04506
2676.87782,0.04477
2674.94923,0.04440
2673.02064,0.04407
2671.09206,0.04379
2669.16347,0.04349
2667.23489,0.04320
2665.30630,0.04288
2663.37771,0.04253
2661.44913,0.04221
2659.52054,0.04186
2657.59195,0.04155
2655.66337,0.04129
2653.73478,0.04100
2651.80620,0.04074
2649.87761,0.04049
2647.94902,0.04022
2646.02044,0.03991
2644.09185,0.03964
2642.16326,0.03937
2640.23468,0.03903
2638.30609,0.03877
2636.37750,0.03852
2634.44892,0.03820
2632.52033,0.03790
2630.59175,0.03759
2628.66316,0.03731
2626.73457,0.03700
2624.80599,0.03669
2622.87740,0.03644
2620.94881,0.03615
2619.02023,0.03581
2617.09164,0.03546
2615.16306,0.03517
2613.23447,0.03488
2611.30588,0.03457
2609.37730,0.03434
2607.44871,0.03404
2605.52012,0.03364
2603.59154,0.03324
2601.66295,0.03291
2599.73436,0.03269
2597.80578,0.03251
2595.87719,0.03227
2593.94861,0.03198
2592.02002,0.03165
2590.09143,0.03126
2588.16285,0.03094
2586.23426,0.03067
2584.30567,0.03027
2582.37709,0.02990
2580.44850,0.02963
2578.51991,0.02938
2576.59133,0.02910
2574.66274,0.02883
2572.73416,0.02865
2570.80557,0.02848
2568.87698,0.02821
2566.94840,0.02791
2565.01981,0.02759
2563.09122,0.02734
2561.16264,0.02720
2559.23405,0.02702
2557.30547,0.02678
2555.37688,0.02651
2553.44829,0.02621
2551.51971,0.02598
2549.59112,0.02581
2547.66253,0.02564
2545.73395,0.02545
2543.80536,0.02523
2541.87677,0.02498
2539.94819,0.02473
2538.01960,0.02452
2536.09102,0.02428
2534.16243,0.02407
2532.23384,0.02389
2530.30526,0.02366
2528.37667,0.02344
2526.44808,0.02322
2524.51950,0.02304
2522.59091,0.02283
2520.66233,0.02257
2518.73374,0.02229
2516.80515,0.02199
2514.87657,0.02187
2512.94798,0.02177
2511.01939,0.02148
2509.09081,0.02112
2507.16222,0.02085
2505.23363,0.02067
2503.30505,0.02047
2501.37646,0.02023
2499.44788,0.01996
2497.51929,0.01967
2495.59070,0.01943
2493.66212,0.01923
2491.73353,0.01903
2489.80494,0.01874
2487.87636,0.01841
2485.94777,0.01819
2484.01919,0.01801
2482.09060,0.01776
2480.16201,0.01740
2478.23343,0.01720
2476.30484,0.01715
2474.37625,0.01692
2472.44767,0.01658
2470.51908,0.01628
2468.59049,0.01598
2466.66191,0.01574
2464.73332,0.01548
2462.80474,0.01521
2460.87615,0.01498
2458.94756,0.01473
2457.01898,0.01448
2455.09039,0.01431
2453.16180,0.01412
2451.23322,0.01380
2449.30463,0.01353
2447.37604,0.01335
2445.44746,0.01313
2443.51887,0.01287
2441.59029,0.01261
2439.66170,0.01242
2437.73311,0.01218
2435.80453,0.01187
2433.87594,0.01165
2431.94735,0.01141
2430.01877,0.01112
2428.09018,0.01085
2426.16160,0.01055
2424.23301,0.01033
2422.30442,0.01026
2420.37584,0.01014
2418.44725,0.00994
2416.51866,0.00972
2414.59008,0.00942
2412.66149,0.00916
2410.73290,0.00896
2408.80432,0.00873
2406.87573,0.00845
2404.94715,0.00817
2403.01856,0.00799
2401.08997,0.00784
2399.16139,0.00762
2397.23280,0.00737
2395.30421,0.00714
2393.37563,0.00690
2391.44704,0.00669
2389.51846,0.00661
2387.58987,0.00649
2385.66128,0.00624
2383.73270,0.00604
2381.80411,0.00585
2379.87552,0.00565
2377.94694,0.00547
2376.01835,0.00531
2374.08976,0.00509
2372.16118,0.00476
2370.23259,0.00446
2368.30401,0.00419
2366.37542,0.00399
2364.44683,0.00386
2362.51825,0.00367
2360.58966,0.00346
2358.66107,0.00323
2356.73249,0.00306
2354.80390,0.00295
2352.87532,0.00292
2350.94673,0.00298
2349.01814,0.00316
2347.08956,0.00333
2345.16097,0.00319
2343.23238,0.00297
2341.30380,0.00288
2339.37521,0.00279
2337.44662,0.00262
2335.51804,0.00236
2333.58945,0.00212
2331.66087,0.00192
2329.73228,0.00181
2327.80369,0.00174
2325.87511,0.00166
2323.94652,0.00163
2322.01793,0.00159
2320.08935,0.00156
2318.16076,0.00154
2316.23217,0.00146
2314.30359,0.00139
2312.37500,0.00138
2310.44642,0.00129
2308.51783,0.00117
2306.58924,0.00113
2304.66066,0.00108
2302.73207,0.00103
2300.80348,0.00101
2298.87490,0.00094
2296.94631,0.00085
2295.01773,0.00078
2293.08914,0.00072
2291.16055,0.00066
2289.23197,0.00059
2287.30338,0.00059
2285.37479,0.00063
2283.44621,0.00062
2281.51762,0.00060
2279.58903,0.00058
2277.66045,0.00042
2275.73186,0.00033
2273.80328,0.00039
2271.87469,0.00037
2269.94610,0.00030
2268.01752,0.00025
2266.08893,0.00022
2264.16034,0.00019
2262.23176,0.00018
2260.30317,0.00018
2258.37459,0.00016
2256.44600,0.00016
2254.51741,0.00013
2252.58883,0.00010
2250.66024,0.00011
2248.73165,0.00013
2246.80307,0.00018
2244.87448,0.00017
2242.94589,0.00013
2241.01731,0.00015
2239.08872,0.00014
2237.16014,0.00009
2235.23155,0.00004
2233.30296,-0.00000
2231.37438,0.00005
2229.44579,0.00008
2227.51720,0.00001
2225.58862,-0.00002
2223.66003,0.00001
2221.73145,0.00002
2219.80286,-0.00001
2217.87427,-0.00008
2215.94569,-0.00013
2214.01710,-0.00016
2212.08851,-0.00021
2210.15993,-0.00018
2208.23134,-0.00020
2206.30275,-0.00022
2204.37417,-0.00014
2202.44558,-0.00017
2200.51700,-0.00019
2198.58841,-0.00015
2196.65982,-0.00014
2194.73124,-0.00013
2192.80265,-0.00008
2190.87406,-0.00002
2188.94548,0.00000
2187.01689,0.00007
2185.08830,0.00019
2183.15972,0.00020
2181.23113,0.00016
2179.30255,0.00012
2177.37396,0.00017
2175.44537,0.00020
2173.51679,0.00018
2171.58820,0.00010
2169.65961,0.00000
2167.73103,0.00009
2165.80244,0.00026
2163.87386,0.00029
2161.94527,0.00027
2160.01668,0.00029
2158.08810,0.00033
2156.15951,0.00033
2154.23092,0.00031
2152.30234,0.00028
2150.37375,0.00029
2148.44516,0.00034
2146.51658,0.00036
2144.58799,0.00034
2142.65941,0.00036
2140.73082,0.00043
2138.80223,0.00037
2136.87365,0.00030
2134.94506,0.00030
2133.01647,0.00026
2131.08789,0.00021
2129.15930,0.00019
2127.23072,0.00016
2125.30213,0.00008
2123.37354,0.00004
2121.44496,0.00004
2119.51637,-0.00000
2117.58778,-0.00005
2115.65920,-0.00007
2113.73061,-0.00008
2111.80202,-0.00007
2109.87344,-0.00006
2107.94485,-0.00007
2106.01627,-0.00011
2104.08768,-0.00010
2102.15909,-0.00008
2100.23051,-0.00009
2098.30192,-0.00004
2096.37333,0.00004
2094.44475,0.00005
2092.51616,0.00001
2090.58758,0.00002
2088.65899,0.00006
2086.73040,0.00004
2084.80182,0.00002
2082.87323,0.00002
2080.94464,0.00000
2079.01606,-0.00005
2077.08747,-0.00000
2075.15888,0.00004
2073.23030,0.00003
2071.30171,0.00001
2069.37313,-0.00003
2067.44454,-0.00003
2065.51595,-0.00003
2063.58737,-0.00002
2061.65878,-0.00000
2059.73019,-0.00002
2057.80161,0.00001
2055.87302,0.00006
2053.94443,0.00010
2052.01585,0.00015
2050.08726,0.00019
2048.15868,0.00026
2046.23009,0.00043
2044.30150,0.00069
2042.37292,0.00094
2040.44433,0.00112
2038.51574,0.00134
2036.58716,0.00161
2034.65857,0.00184
2032.72999,0.00204
2030.80140,0.00223
2028.87281,0.00235
2026.94423,0.00242
2025.01564,0.00244
2023.08705,0.00250
2021.15847,0.00257
2019.22988,0.00260
2017.30129,0.00269
2015.37271,0.00285
2013.44412,0.00313
2011.51554,0.00341
2009.58695,0.00361
2007.65836,0.00384
2005.72978,0.00406
2003.80119,0.00415
2001.87260,0.00410
1999.94402,0.00405
1998.01543,0.00408
1996.08685,0.00412
1994.15826,0.00411
1992.22967,0.00398
1990.30109,0.00384
1988.37250,0.00373
1986.44391,0.00364
1984.51533,0.00358
1982.58674,0.00349
1980.65815,0.00335
1978.72957,0.00317
1976.80098,0.00307
1974.87240,0.00301
1972.94381,0.00286
1971.01522,0.00267
1969.08664,0.00251
1967.15805,0.00233
1965.22946,0.00203
1963.30088,0.00173
1961.37229,0.00148
1959.44371,0.00134
1957.51512,0.00127
1955.58653,0.00117
1953.65795,0.00108
1951.72936,0.00099
1949.80077,0.00092
1947.87219,0.00083
1945.94360,0.00075
1944.01501,0.00065
1942.08643,0.00046
1940.15784,0.00034
1938.22926,0.00028
1936.30067,0.00023
1934.37208,0.00017
1932.44350,0.00008
1930.51491,0.00003
1928.58632,-0.00004
1926.65774,-0.00007
1924.72915,0.00000
1922.80056,-0.00006
1920.87198,-0.00006
1918.94339,0.00005
1917.01481,0.00017
1915.08622,0.00054
1913.15763,0.00106
1911.22905,0.00155
1909.30046,0.00212
1907.37187,0.00267
1905.44329,0.00324
1903.51470,0.00376
1901.58612,0.00432
1899.65753,0.00497
1897.72894,0.00552
1895.80036,0.00605
1893.87177,0.00658
1891.94318,0.00715
1890.01460,0.00764
1888.08601,0.00787
1886.15742,0.00816
1884.22884,0.00840
1882.30025,0.00862
1880.37167,0.00884
1878.44308,0.00892
1876.51449,0.00901
1874.58591,0.00912
1872.65732,0.00920
1870.72873,0.00918
1868.80015,0.00894
1866.87156,0.00852
1864.94298,0.00817
1863.01439,0.00780
1861.08580,0.00720
1859.15722,0.00645
1857.22863,0.00557
1855.30004,0.00473
1853.37146,0.00386
1851.44287,0.00305
1849.51428,0.00233
1847.58570,0.00167
1845.65711,0.00118
1843.72853,0.00045
1841.79994,0.00000
1839.87135,-0.00028
1837.94277,-0.00064
1836.01418,-0.00083
1834.08559,-0.00101
1832.15701,-0.00098
1830.22842,-0.00108
1828.29984,-0.00118
1826.37125,-0.00082
1824.44266,-0.00059
1822.51408,-0.00033
1820.58549,0.00014
1818.65690,0.00063
1816.72832,0.00117
1814.79973,0.00182
1812.87114,0.00258
1810.94256,0.00335
1809.01397,0.00426
1807.08539,0.00533
1805.15680,0.00656
1803.22821,0.00786
1801.29963,0.00918
1799.37104,0.01060
1797.44245,0.01220
1795.51387,0.01400
1793.58528,0.01570
1791.65669,0.01728
1789.72811,0.01926
1787.79952,0.02154
1785.87094,0.02357
1783.94235,0.02551
1782.01376,0.02760
1780.08518,0.02967
1778.15659,0.03174
1776.22800,0.03379
1774.29942,0.03589
1772.37083,0.03763
1770.44225,0.03923
1768.51366,0.04116
1766.58507,0.04297
1764.65649,0.04503
1762.72790,0.04719
1760.79931,0.04922
1758.87073,0.05169
1756.94214,0.05424
1755.01355,0.05703
1753.08497,0.06027
1751.15638,0.06357
1749.22780,0.06707
1747.29921,0.07112
1745.37062,0.07549
1743.44204,0.08001
1741.51345,0.08456
1739.58486,0.08883
1737.65628,0.09297
1735.72769,0.09689
1733.79911,0.09978
1731.87052,0.10233
1729.94193,0.10534
1728.01335,0.10801
1726.08476,0.11072
1724.15617,0.11350
1722.22759,0.11615
1720.29900,0.11908
1718.37041,0.12161
1716.44183,0.12374
1714.51324,0.12601
1712.58466,0.12844
1710.65607,0.13068
1708.72748,0.13262
1706.79890,0.13458
1704.87031,0.13634
1702.94172,0.13866
1701.01314,0.14111
1699.08455,0.14322
1697.15596,0.14621
1695.22738,0.14886
1693.29879,0.15155
1691.37021,0.15480
1689.44162,0.15748
1687.51303,0.16053
1685.58445,0.16358
1683.65586,0.16581
1681.72727,0.16868
1679.79869,0.17192
1677.87010,0.17498
1675.94152,0.17766
1674.01293,0.18012
1672.08434,0.18283
1670.15576,0.18512
1668.22717,0.18708
1666.29858,0.18916
1664.37000,0.19099
1662.44141,0.19221
1660.51282,0.19328
1658.58424,0.19428
1656.65565,0.19504
1654.72707,0.19566
1652.79848,0.19462
1650.86989,0.19395
1648.94131,0.19481
1647.01272,0.19476
1645.08413,0.19421
1643.15555,0.19420
1641.22696,0.19425
1639.29838,0.19429
1637.36979,0.19456
1635.44120,0.19417
1633.51262,0.19353
1631.58403,0.19355
1629.65544,0.19285
1627.72686,0.19150
1625.79827,0.18987
1623.86968,0.18775
1621.94110,0.18515
1620.01251,0.18297
1618.08393,0.18101
1616.15534,0.17789
1614.22675,0.17543
1612.29817,0.17356
1610.36958,0.17139
1608.44099,0.16925
1606.51241,0.16714
1604.58382,0.16532
1602.65524,0.16337
1600.72665,0.16154
1598.79806,0.15965
1596.86948,0.15785
1594.94089,0.15621
1593.01230,0.15436
1591.08372,0.15249
1589.15513,0.15041
1587.22654,0.14838
1585.29796,0.14629
1583.36937,0.14424
1581.44079,0.14227
1579.51220,0.14058
1577.58361,0.13911
1575.65503,0.13690
1573.72644,0.13550
1571.79785,0.13506
1569.86927,0.13415
1567.94068,0.13333
1566.01209,0.13318
1564.08351,0.13310
1562.15492,0.13336
1560.22634,0.13340
1558.29775,0.13242
1556.36916,0.13275
1554.44058,0.13361
1552.51199,0.13393
1550.58340,0.13422
1548.65482,0.13405
1546.72623,0.13401
1544.79765,0.13384
1542.86906,0.13342
1540.94047,0.13285
1539.01189,0.13126
1537.08330,0.13049
1535.15471,0.13021
1533.22613,0.12909
1531.29754,0.12785
1529.36895,0.12696
1527.44037,0.12587
1525.51178,0.12452
1523.58320,0.12367
1521.65461,0.12280
1519.72602,0.12207
1517.79744,0.12182
1515.86885,0.12100
1513.94026,0.11947
1512.01168,0.11714
1510.08309,0.11451
1508.15451,0.11179
1506.22592,0.10760
1504.29733,0.10365
1502.36875,0.10066
1500.44016,0.09712
1498.51157,0.09340
1496.58299,0.08956
1494.65440,0.08595
1492.72581,0.08339
1490.79723,0.08098
1488.86864,0.07874
1486.94006,0.07728
1485.01147,0.07637
1483.08288,0.07612
1481.15430,0.07649
1479.22571,0.07765
1477.29712,0.07968
1475.36854,0.08259
1473.43995,0.08700
1471.51137,0.09277
1469.58278,0.09899
1467.65419,0.10430
1465.72561,0.10732
1463.79702,0.10860
1461.86843,0.10932
1459.93985,0.11027
1458.01126,0.11124
1456.08267,0.11148
1454.15409,0.11185
1452.22550,0.11200
1450.29692,0.11175
1448.36833,0.11155
1446.43974,0.11109
1444.51116,0.11079
1442.58257,0.11055
1440.65398,0.11043
1438.72540,0.11055
1436.79681,0.11035
1434.86822,0.11023
1432.93964,0.11049
1431.01105,0.11065
1429.08247,0.11073
1427.15388,0.11110
1425.22529,0.11157
1423.29671,0.11206
1421.36812,0.11278
1419.43953,0.11312
1417.51095,0.11289
1415.58236,0.11297
1413.65378,0.11321
1411.72519,0.11325
1409.79660,0.11316
1407.86802,0.11304
1405.93943,0.11295
1404.01084,0.11266
1402.08226,0.11226
1400.15367,0.11142
1398.22508,0.11014
1396.29650,0.10895
1394.36791,0.10752
1392.43933,0.10626
1390.51074,0.10545
1388.58215,0.10465
1386.65357,0.10357
1384.72498,0.10279
1382.79639,0.10310
1380.86781,0.10380
1378.93922,0.10408
1377.01064,0.10375
1375.08205,0.10282
1373.15346,0.10159
1371.22488,0.10033
1369.29629,0.09897
1367.36770,0.09743
1365.43912,0.09590
1363.51053,0.09436
1361.58194,0.09286
1359.65336,0.09166
1357.72477,0.09068
1355.79619,0.08976
1353.86760,0.08878
1351.93901,0.08791
1350.01043,0.08715
1348.08184,0.08647
1346.15325,0.08585
1344.22467,0.08520
1342.29608,0.08474
1340.36750,0.08432
1338.43891,0.08369
1336.51032,0.08311
1334.58174,0.08271
1332.65315,0.08244
1330.72456,0.08213
1328.79598,0.08176
1326.86739,0.08148
1324.93880,0.08124
1323.01022,0.08086
1321.08163,0.08052
1319.15305,0.08038
1317.22446,0.08018
1315.29587,0.07984
1313.36729,0.07953
1311.43870,0.07929
1309.51011,0.07909
1307.58153,0.07893
1305.65294,0.07889
1303.72435,0.07883
1301.79577,0.07886
1299.86718,0.07913
1297.93860,0.07934
1296.01001,0.07964
1294.08142,0.08026
1292.15284,0.08107
1290.22425,0.08199
1288.29566,0.08316
1286.36708,0.08461
1284.43849,0.08618
1282.50991,0.08790
1280.58132,0.08970
1278.65273,0.09157
1276.72415,0.09356
1274.79556,0.09574
1272.86697,0.09804
1270.93839,0.10045
1269.00980,0.10310
1267.08121,0.10593
1265.15263,0.10901
1263.22404,0.11232
1261.29546,0.11595
1259.36687,0.12021
1257.43828,0.12512
1255.50970,0.13080
1253.58111,0.13698
1251.65252,0.14325
1249.72394,0.14965
1247.79535,0.15592
1245.86677,0.16181
1243.93818,0.16742
1242.00959,0.17267
1240.08101,0.17733
1238.15242,0.18172
1236.22383,0.18598
1234.29525,0.18975
1232.36666,0.19301
1230.43807,0.19598
1228.50949,0.19871
1226.58090,0.20123
1224.65232,0.20372
1222.72373,0.20610
1220.79514,0.20833
1218.86656,0.21066
1216.93797,0.21299
1215.00938,0.21509
1213.08080,0.21705
1211.15221,0.21905
1209.22363,0.22111
1207.29504,0.22339
1205.36645,0.22563
1203.43787,0.22746
1201.50928,0.22904
1199.58069,0.23046
1197.65211,0.23201
1195.72352,0.23365
1193.79493,0.23520
1191.86635,0.23684
1189.93776,0.23843
1188.00918,0.24000
1186.08059,0.24156
1184.15200,0.24326
1182.22342,0.24533
1180.29483,0.24749
1178.36624,0.24996
1176.43766,0.25280
1174.50907,0.25555
1172.58048,0.25804
1170.65190,0.26082
1168.72331,0.26395
1166.79473,0.26686
1164.86614,0.26963
1162.93755,0.27242
1161.00897,0.27475
1159.08038,0.27592
1157.15179,0.27665
1155.22321,0.27785
1153.29462,0.27933
1151.36604,0.28100
1149.43745,0.28284
1147.50886,0.28499
1145.58028,0.28735
1143.65169,0.28995
1141.72310,0.29298
1139.79452,0.29622
1137.86593,0.29979
1135.93734,0.30366
1134.00876,0.30768
1132.08017,0.31169
1130.15159,0.31602
1128.22300,0.32120
1126.29441,0.32658
1124.36583,0.33205
1122.43724,0.33794
1120.50865,0.34383
1118.58007,0.34993
1116.65148,0.35679
1114.72290,0.36411
1112.79431,0.37168
1110.86572,0.37911
1108.93714,0.38594
1107.00855,0.39249
1105.07996,0.39844
1103.15138,0.40337
1101.22279,0.40762
1099.29420,0.41070
1097.36562,0.41239
1095.43703,0.41336
1093.50845,0.41387
1091.57986,0.41395
1089.65127,0.41369
1087.72269,0.41279
1085.79410,0.41136
1083.86551,0.40991
1081.93693,0.40831
1080.00834,0.40632
1078.07976,0.40426
1076.15117,0.40220
1074.22258,0.40005
1072.29400,0.39826
1070.36541,0.39663
1068.43682,0.39487
1066.50824,0.39341
1064.57965,0.39222
1062.65106,0.39039
1060.72248,0.38753
1058.79389,0.38478
1056.86531,0.38242
1054.93672,0.37981
1053.00813,0.37733
1051.07955,0.37525
1049.15096,0.37385
1047.22237,0.37289
1045.29379,0.37223
1043.36520,0.37275
1041.43661,0.37421
1039.50803,0.37570
1037.57944,0.37693
1035.65086,0.37738
1033.72227,0.37685
1031.79368,0.37570
1029.86510,0.37392
1027.93651,0.37119
1026.00792,0.36769
1024.07934,0.36408
1022.15075,0.36057
1020.22217,0.35701
1018.29358,0.35302
1016.36499,0.34895
1014.43641,0.34548
1012.50782,0.34212
1010.57923,0.33828
1008.65065,0.33393
1006.72206,0.32948
1004.79347,0.32500
1002.86489,0.31994
1000.93630,0.31444
999.00772,0.30872
997.07913,0.30259
995.15054,0.29623
993.22196,0.28979
991.29337,0.28349
989.36478,0.27699
987.43620,0.26999
985.50761,0.26257
983.57903,0.25443
981.65044,0.24561
979.72185,0.23616
977.79327,0.22636
975.86468,0.21656
973.93609,0.20653
972.00751,0.19682
970.07892,0.18727
968.15033,0.17789
966.22175,0.16967
964.29316,0.16217
962.36458,0.15509
960.43599,0.14865
958.50740,0.14295
956.57882,0.13819
954.65023,0.13379
952.72164,0.12987
950.79306,0.12673
948.86447,0.12406
946.93589,0.12182
945.00730,0.11995
943.07871,0.11831
941.15013,0.11696
939.22154,0.11576
937.29295,0.11443
935.36437,0.11308
933.43578,0.11174
931.50719,0.11033
929.57861,0.10903
927.65002,0.10788
925.72144,0.10686
923.79285,0.10600
921.86426,0.10534
919.93568,0.10493
918.00709,0.10480
916.07850,0.10450
914.14992,0.10346
912.22133,0.10160
910.29274,0.09866
908.36416,0.09455
906.43557,0.08951
904.50699,0.08375
902.57840,0.07762
900.64981,0.07141
898.72123,0.06557
896.79264,0.06017
894.86405,0.05534
892.93547,0.05111
891.00688,0.04724
889.07830,0.04371
887.14971,0.04007
885.22112,0.03639
883.29254,0.03335
881.36395,0.03054
879.43536,0.02747
877.50678,0.02443
875.57819,0.02132
873.64960,0.01822
871.72102,0.01534
869.79243,0.01246
867.86385,0.00998
865.93526,0.00777
864.00667,0.00553
862.07809,0.00360
860.14950,0.00215
858.22091,0.00131
856.29233,0.00061
854.36374,0.00000
852.43516,-0.00020
850.50657,0.00017
848.57798,0.00109
846.64940,0.00225
844.72081,0.00398
842.79222,0.00654
840.86364,0.00973
838.93505,0.01343
837.00646,0.01735
835.07788,0.02117
833.14929,0.02415
831.22071,0.02665
829.29212,0.02864
827.36353,0.02965
825.43495,0.03077
823.50636,0.03201
821.57777,0.03295
819.64919,0.03423
817.72060,0.03612
815.79201,0.03795
813.86343,0.03981
811.93484,0.04319
810.00626,0.04818
808.07767,0.05405
806.14908,0.06067
804.22050,0.06756
802.29191,0.07303
800.36332,0.07528
798.43474,0.07390
796.50615,0.06972
794.57757,0.06471
792.64898,0.05985
790.72039,0.05581
788.79181,0.05304
786.86322,0.05144
784.93463,0.05159
783.00605,0.05246
781.07746,0.05270
779.14887,0.05132
777.22029,0.04714
775.29170,0.04105
773.36312,0.03500
771.43453,0.02996
769.50594,0.02599
767.57736,0.02380
765.64877,0.02308
763.72018,0.02283
761.79160,0.02318
759.86301,0.02348
757.93443,0.02337
756.00584,0.02297
754.07725,0.02265
752.14867,0.02247
750.22008,0.02182
748.29149,0.02075
746.36291,0.01923
744.43432,0.01735
742.50573,0.01503
740.57715,0.01206
738.64856,0.00918
736.71998,0.00716
734.79139,0.00578
732.86280,0.00472
730.93422,0.00449
729.00563,0.00456
727.07704,0.00460
725.14846,0.00501
723.21987,0.00520
721.29129,0.00508
719.36270,0.00434
717.43411,0.00288
715.50553,0.00152
713.57694,0.00080
711.64835,0.00129
709.71977,0.00242
707.79118,0.00333
705.86259,0.00493
703.93401,0.00771
702.00542,0.01093
700.07684,0.01463
698.14825,0.01890
696.21966,0.02209
694.29108,0.02145
692.36249,0.01785
690.43390,0.01453
688.50532,0.01178
686.57673,0.00932
684.64814,0.00796
682.71956,0.00703
680.79097,0.00556
678.86239,0.00465
676.93380,0.00447
675.00521,0.00377
673.07663,0.00269
671.14804,0.00165
669.21945,0.00118
667.29087,0.00084
665.36228,0.00001
663.43370,-0.00030
661.50511,-0.00007
659.57652,0.00000
657.64794,-0.00000
655.71935,0.00046
653.79076,0.00034
651.86218,0.00037
649.93359,0.00114
648.00500,0.00144
646.07642,0.00188
644.14783,0.00187
642.21925,0.00158
640.29066,0.00214
638.36207,0.00270
636.43349,0.00330
634.50490,0.00415
632.57631,0.00477
630.64773,0.00455
628.71914,0.00486
626.79056,0.00610
624.86197,0.00634
622.93338,0.00652
621.00480,0.00768
619.07621,0.00861
617.14762,0.00900
615.21904,0.00991
613.29045,0.01136
611.36186,0.01231
609.43328,0.01271
607.50469,0.01385
605.57611,0.01557
603.64752,0.01651
601.71893,0.01765
599.79035,0.01922
597.86176,0.02160
595.93317,0.02484
594.00459,0.02761
592.07600,0.03097
590.14742,0.03420
588.21883,0.03695
586.29024,0.04041
584.36166,0.04425
582.43307,0.04868
580.50448,0.05304
578.57590,0.05725
576.64731,0.06160
574.71872,0.06572
572.79014,0.06967
570.86155,0.07398
568.93297,0.07892
567.00438,0.08428
565.07579,0.09019
563.14721,0.09573
561.21862,0.10031
559.29003,0.10378
557.36145,0.10818
555.43286,0.11358
553.50427,0.11682
551.57569,0.12098
549.64710,0.12714
547.71852,0.13207
545.78993,0.13554
543.86134,0.13891
541.93276,0.14452
540.00417,0.15053
538.07558,0.15617
536.14700,0.16363
534.21841,0.16813
532.28983,0.16964
530.36124,0.17182
528.43265,0.17048
526.50407,0.16786
524.57548,0.16620
522.64689,0.16171
520.71831,0.15837
518.78972,0.15523
516.86113,0.14904
514.93255,0.14402
513.00396,0.13811
511.07538,0.13287
509.14679,0.13178
507.21820,0.13000
505.28962,0.12845
503.36103,0.12898
501.43244,0.13094
499.50386,0.13636
497.57527,0.14244
495.64669,0.14752
493.71810,0.15672
491.78951,0.16744
489.86093,0.17626
487.93234,0.19125
486.00375,0.20704
484.07517,0.21743
482.14658,0.22850
480.21799,0.23779
478.28941,0.24753
476.36082,0.25679
474.43224,0.26421
472.50365,0.26951
470.57506,0.26602
468.64648,0.25801
466.71789,0.24791
464.78930,0.23687
462.86072,0.22417
460.93213,0.21328
459.00355,0.20180
457.07496,0.18467
455.14637,0.17075
453.21779,0.16109
451.28920,0.15330
449.36061,0.14451
447.43203,0.13527
445.50344,0.12639
443.57485,0.11987
441.64627,0.11540
439.71768,0.11113
437.78910,0.10853
435.86051,0.09857
433.93192,0.09198
432.00334,0.09263
430.07475,0.08877
428.14616,0.08243
426.21758,0.07551
424.28899,0.07364
422.36040,0.07456
420.43182,0.07698
418.50323,0.06745
416.57465,0.05734
414.64606,0.05465
412.71747,0.03910
410.78889,0.03170
408.86030,0.02435
406.93171,0.01705
405.00313,0.01439
403.07454,0.00446
401.14596,0.00360
399.21737,0.00000
