3747.24323,0.00113
3745.31464,0.00442
3743.38605,0.00000
3741.45747,0.00019
3739.52888,0.00486
3737.60030,0.00671
3735.67171,0.00608
3733.74312,0.00480
3731.81454,0.00490
3729.88595,0.00597
3727.95736,0.00884
3726.02878,0.01021
3724.10019,0.01017
3722.17161,0.01229
3720.24302,0.01371
3718.31443,0.01653
3716.38585,0.01980
3714.45726,0.02389
3712.52867,0.02762
3710.60009,0.02778
3708.67150,0.03128
3706.74291,0.03615
3704.81433,0.04155
3702.88574,0.04596
3700.95716,0.04752
3699.02857,0.05029
3697.09998,0.05184
3695.17140,0.05280
3693.24281,0.05339
3691.31422,0.05434
3689.38564,0.05441
3687.45705,0.05285
3685.52846,0.05548
3683.59988,0.05962
3681.67129,0.06394
3679.74271,0.06781
3677.81412,0.07331
3675.88553,0.07724
3673.95695,0.07818
3672.02836,0.08571
3670.09977,0.09143
3668.17119,0.09450
3666.24260,0.10136
3664.31402,0.10771
3662.38543,0.11340
3660.45684,0.11844
3658.52826,0.12409
3656.59967,0.12829
3654.67108,0.13062
3652.74250,0.13647
3650.81391,0.14125
3648.88532,0.14198
3646.95674,0.14358
3645.02815,0.14811
3643.09957,0.15293
3641.17098,0.15642
3639.24239,0.15971
3637.31381,0.16319
3635.38522,0.16711
3633.45663,0.17030
3631.52805,0.17448
3629.59946,0.17710
3627.67088,0.17458
3625.74229,0.17687
3623.81370,0.18054
3621.88512,0.18192
3619.95653,0.18121
3618.02794,0.17677
3616.09936,0.17514
3614.17077,0.17395
3612.24218,0.17084
3610.31360,0.16919
3608.38501,0.16681
3606.45643,0.16406
3604.52784,0.16333
3602.59925,0.16313
3600.67067,0.16152
3598.74208,0.15976
3596.81349,0.15861
3594.88491,0.15713
3592.95632,0.15559
3591.02774,0.15548
3589.09915,0.15562
3587.17056,0.15340
3585.24198,0.15205
3583.31339,0.15288
3581.38480,0.15342
3579.45622,0.15368
3577.52763,0.15385
3575.59904,0.15419
3573.67046,0.15467
3571.74187,0.15547
3569.81329,0.15673
3567.88470,0.15665
3565.95611,0.15563
3564.02753,0.15641
3562.09894,0.15806
3560.17035,0.15891
3558.24177,0.15942
3556.31318,0.16023
3554.38459,0.16116
3552.45601,0.16175
3550.52742,0.16239
3548.59884,0.16366
3546.67025,0.16443
3544.74166,0.16458
3542.81308,0.16519
3540.88449,0.16644
3538.95590,0.16807
3537.02732,0.16921
3535.09873,0.16972
3533.17015,0.17048
3531.24156,0.17148
3529.31297,0.17234
3527.38439,0.17305
3525.45580,0.17390
3523.52721,0.17458
3521.59863,0.17499
3519.67004,0.17624
3517.74145,0.17776
3515.81287,0.17862
3513.88428,0.17956
3511.95570,0.18039
3510.02711,0.18098
3508.09852,0.18173
3506.16994,0.18281
3504.24135,0.18391
3502.31276,0.18427
3500.38418,0.18480
3498.45559,0.18606
3496.52701,0.18711
3494.59842,0.18782
3492.66983,0.18858
3490.74125,0.18956
3488.81266,0.19054
3486.88407,0.19135
3484.95549,0.19195
3483.02690,0.19264
3481.09831,0.19347
3479.16973,0.19413
3477.24114,0.19487
3475.31256,0.19535
3473.38397,0.19589
3471.45538,0.19682
3469.52680,0.19801
3467.59821,0.19901
3465.66962,0.19941
3463.74104,0.20019
3461.81245,0.20094
3459.88386,0.20122
3457.95528,0.20183
3456.02669,0.20262
3454.09811,0.20319
3452.16952,0.20359
3450.24093,0.20440
3448.31235,0.20518
3446.38376,0.20563
3444.45517,0.20627
3442.52659,0.20680
3440.59800,0.20721
3438.66942,0.20762
3436.74083,0.20836
3434.81224,0.20934
3432.88366,0.20988
3430.95507,0.21011
3429.02648,0.21043
3427.09790,0.21112
3425.16931,0.21179
3423.24072,0.21210
3421.31214,0.21231
3419.38355,0.21248
3417.45497,0.21310
3415.52638,0.21376
3413.59779,0.21365
3411.66921,0.21368
3409.74062,0.21434
3407.81203,0.21488
3405.88345,0.21494
3403.95486,0.21487
3402.02628,0.21515
3400.09769,0.21555
3398.16910,0.21565
3396.24052,0.21587
3394.31193,0.21634
3392.38334,0.21648
3390.45476,0.21664
3388.52617,0.21701
3386.59758,0.21700
3384.66900,0.21699
3382.74041,0.21716
3380.81183,0.21745
3378.88324,0.21776
3376.95465,0.21785
3375.02607,0.21798
3373.09748,0.21791
3371.16889,0.21800
3369.24031,0.21835
3367.31172,0.21850
3365.38314,0.21871
3363.45455,0.21887
3361.52596,0.21894
3359.59738,0.21890
3357.66879,0.21897
3355.74020,0.21926
3353.81162,0.21962
3351.88303,0.21999
3349.95444,0.21992
3348.02586,0.21982
3346.09727,0.21988
3344.16869,0.21992
3342.24010,0.22010
3340.31151,0.22025
3338.38293,0.22026
3336.45434,0.21988
3334.52575,0.21981
3332.59717,0.22016
3330.66858,0.22032
3328.73999,0.22038
3326.81141,0.21998
3324.88282,0.21979
3322.95424,0.22025
3321.02565,0.22044
3319.09706,0.22017
3317.16848,0.21995
3315.23989,0.22011
3313.31130,0.22013
3311.38272,0.21969
3309.45413,0.21926
3307.52555,0.21907
3305.59696,0.21922
3303.66837,0.21938
3301.73979,0.21916
3299.81120,0.21891
3297.88261,0.21875
3295.95403,0.21848
3294.02544,0.21815
3292.09685,0.21791
3290.16827,0.21771
3288.23968,0.21731
3286.31110,0.21683
3284.38251,0.21636
3282.45392,0.21559
3280.52534,0.21486
3278.59675,0.21448
3276.66816,0.21400
3274.73958,0.21326
3272.81099,0.21249
3270.88241,0.21169
3268.95382,0.21096
3267.02523,0.21027
3265.09665,0.20932
3263.16806,0.20815
3261.23947,0.20711
3259.31089,0.20630
3257.38230,0.20541
3255.45371,0.20418
3253.52513,0.20285
3251.59654,0.20179
3249.66796,0.20109
3247.73937,0.20033
3245.81078,0.19931
3243.88220,0.19857
3241.95361,0.19791
3240.02502,0.19706
3238.09644,0.19629
3236.16785,0.19536
3234.23927,0.19441
3232.31068,0.19360
3230.38209,0.19270
3228.45351,0.19190
3226.52492,0.19121
3224.59633,0.19048
3222.66775,0.18967
3220.73916,0.18890
3218.81057,0.18820
3216.88199,0.18750
3214.95340,0.18674
3213.02482,0.18572
3211.09623,0.18467
3209.16764,0.18378
3207.23906,0.18291
3205.31047,0.18219
3203.38188,0.18148
3201.45330,0.18069
3199.52471,0.18014
3197.59612,0.17957
3195.66754,0.17859
3193.73895,0.17747
3191.81037,0.17642
3189.88178,0.17564
3187.95319,0.17509
3186.02461,0.17436
3184.09602,0.17346
3182.16743,0.17248
3180.23885,0.17169
3178.31026,0.17094
3176.38168,0.16999
3174.45309,0.16910
3172.52450,0.16829
3170.59592,0.16767
3168.66733,0.16702
3166.73874,0.16602
3164.81016,0.16518
3162.88157,0.16444
3160.95298,0.16365
3159.02440,0.16288
3157.09581,0.16200
3155.16723,0.16108
3153.23864,0.16038
3151.31005,0.15994
3149.38147,0.15927
3147.45288,0.15842
3145.52429,0.15789
3143.59571,0.15731
3141.66712,0.15649
3139.73854,0.15588
3137.80995,0.15537
3135.88136,0.15464
3133.95278,0.15399
3132.02419,0.15345
3130.09560,0.15270
3128.16702,0.15209
3126.23843,0.15185
3124.30984,0.15146
3122.38126,0.15084
3120.45267,0.15045
3118.52409,0.15020
3116.59550,0.14972
3114.66691,0.14929
3112.73833,0.14898
3110.80974,0.14847
3108.88115,0.14812
3106.95257,0.14800
3105.02398,0.14779
3103.09540,0.14742
3101.16681,0.14693
3099.23822,0.14661
3097.30964,0.14640
3095.38105,0.14607
3093.45246,0.14575
3091.52388,0.14550
3089.59529,0.14518
3087.66670,0.14482
3085.73812,0.14448
3083.80953,0.14423
3081.88095,0.14413
3079.95236,0.14382
3078.02377,0.14319
3076.09519,0.14252
3074.16660,0.14196
3072.23801,0.14158
3070.30943,0.14125
3068.38084,0.14096
3066.45225,0.14055
3064.52367,0.13988
3062.59508,0.13922
3060.66650,0.13861
3058.73791,0.13791
3056.80932,0.13704
3054.88074,0.13642
3052.95215,0.13609
3051.02356,0.13558
3049.09498,0.13502
3047.16639,0.13440
3045.23781,0.13374
3043.30922,0.13323
3041.38063,0.13275
3039.45205,0.13222
3037.52346,0.13162
3035.59487,0.13111
3033.66629,0.13068
3031.73770,0.13018
3029.80911,0.12973
3027.88053,0.12924
3025.95194,0.12877
3024.02336,0.12847
3022.09477,0.12812
3020.16618,0.12784
3018.23760,0.12776
3016.30901,0.12777
3014.38042,0.12771
3012.45184,0.12757
3010.52325,0.12758
3008.59467,0.12777
3006.66608,0.12823
3004.73749,0.12873
3002.80891,0.12911
3000.88032,0.12953
2998.95173,0.13000
2997.02315,0.13067
2995.09456,0.13165
2993.16597,0.13281
2991.23739,0.13392
2989.30880,0.13509
2987.38022,0.13656
2985.45163,0.13823
2983.52304,0.14008
2981.59446,0.14197
2979.66587,0.14383
2977.73728,0.14570
2975.80870,0.14749
2973.88011,0.14949
2971.95153,0.15173
2970.02294,0.15386
2968.09435,0.15601
2966.16577,0.15835
2964.23718,0.16070
2962.30859,0.16299
2960.38001,0.16517
2958.45142,0.16737
2956.52283,0.16974
2954.59425,0.17188
2952.66566,0.17385
2950.73708,0.17594
2948.80849,0.17831
2946.87990,0.18124
2944.95132,0.18447
2943.02273,0.18824
2941.09414,0.19285
2939.16556,0.19747
2937.23697,0.20203
2935.30838,0.20712
2933.37980,0.21223
2931.45121,0.21675
2929.52263,0.22080
2927.59404,0.22442
2925.66545,0.22740
2923.73687,0.22930
2921.80828,0.22979
2919.87969,0.22886
2917.95111,0.22547
2916.02252,0.21874
2914.09394,0.20969
2912.16535,0.20061
2910.23676,0.19299
2908.30818,0.18697
2906.37959,0.18231
2904.45100,0.17838
2902.52242,0.17485
2900.59383,0.17176
2898.66524,0.16896
2896.73666,0.16617
2894.80807,0.16330
2892.87949,0.16067
2890.95090,0.15820
2889.02231,0.15567
2887.09373,0.15323
2885.16514,0.15110
2883.23655,0.14950
2881.30797,0.14822
2879.37938,0.14729
2877.45080,0.14687
2875.52221,0.14679
2873.59362,0.14695
2871.66504,0.14717
2869.73645,0.14736
2867.80786,0.14792
2865.87928,0.14923
2863.95069,0.15136
2862.02210,0.15465
2860.09352,0.15945
2858.16493,0.16540
2856.23635,0.17160
2854.30776,0.17668
2852.37917,0.17895
2850.45059,0.17681
2848.52200,0.16957
2846.59341,0.15882
2844.66483,0.14733
2842.73624,0.13708
2840.80766,0.12874
2838.87907,0.12206
2836.95048,0.11659
2835.02190,0.11213
2833.09331,0.10847
2831.16472,0.10547
2829.23614,0.10293
2827.30755,0.10071
2825.37896,0.09876
2823.45038,0.09690
2821.52179,0.09519
2819.59321,0.09373
2817.66462,0.09227
2815.73603,0.09073
2813.80745,0.08942
2811.87886,0.08844
2809.95027,0.08748
2808.02169,0.08639
2806.09310,0.08531
2804.16451,0.08426
2802.23593,0.08335
2800.30734,0.08263
2798.37876,0.08181
2796.45017,0.08084
2794.52158,0.08002
2792.59300,0.07935
2790.66441,0.07869
2788.73582,0.07800
2786.80724,0.07726
2784.87865,0.07662
2782.95007,0.07602
2781.02148,0.07521
2779.09289,0.07445
2777.16431,0.07399
2775.23572,0.07353
2773.30713,0.07293
2771.37855,0.07250
2769.44996,0.07210
2767.52137,0.07153
2765.59279,0.07099
2763.66420,0.07049
2761.73562,0.06995
2759.80703,0.06950
2757.87844,0.06927
2755.94986,0.06904
2754.02127,0.06857
2752.09268,0.06817
2750.16410,0.06783
2748.23551,0.06736
2746.30693,0.06705
2744.37834,0.06675
2742.44975,0.06633
2740.52117,0.06599
2738.59258,0.06570
2736.66399,0.06549
2734.73541,0.06522
2732.80682,0.06479
2730.87823,0.06438
2728.94965,0.06403
2727.02106,0.06361
2725.09248,0.06321
2723.16389,0.06276
2721.23530,0.06219
2719.30672,0.06184
2717.37813,0.06153
2715.44954,0.06100
2713.52096,0.06056
2711.59237,0.06022
2709.66379,0.05986
2707.73520,0.05946
2705.80661,0.05909
2703.87803,0.05871
2701.94944,0.05830
2700.02085,0.05795
2698.09227,0.05764
2696.16368,0.05738
2694.23509,0.05704
2692.30651,0.05663
2690.37792,0.05638
2688.44934,0.05628
2686.52075,0.05612
2684.59216,0.05575
2682.66358,0.05544
2680.73499,0.05519
2678.80640,0.05489
2676.87782,0.05457
2674.94923,0.05410
2673.02064,0.05369
2671.09206,0.05333
2669.16347,0.05299
2667.23489,0.05270
2665.30630,0.05242
2663.37771,0.05210
2661.44913,0.05159
2659.52054,0.05116
2657.59195,0.05088
2655.66337,0.05061
2653.73478,0.05042
2651.80620,0.05020
2649.87761,0.04981
2647.94902,0.04944
2646.02044,0.04927
2644.09185,0.04902
2642.16326,0.04863
2640.23468,0.04823
2638.30609,0.04785
2636.37750,0.04749
2634.44892,0.04716
2632.52033,0.04690
2630.59175,0.04659
2628.66316,0.04630
2626.73457,0.04602
2624.80599,0.04563
2622.87740,0.04538
2620.94881,0.04517
2619.02023,0.04474
2617.09164,0.04426
2615.16306,0.04403
2613.23447,0.04382
2611.30588,0.04335
2609.37730,0.04302
2607.44871,0.04277
2605.52012,0.04240
2603.59154,0.04202
2601.66295,0.04173
2599.73436,0.04147
2597.80578,0.04116
2595.87719,0.04075
2593.94861,0.04031
2592.02002,0.04008
2590.09143,0.03991
2588.16285,0.03958
2586.23426,0.03917
2584.30567,0.03885
2582.37709,0.03864
2580.44850,0.03834
2578.51991,0.03800
2576.59133,0.03767
2574.66274,0.03742
2572.73416,0.03717
2570.80557,0.03682
2568.87698,0.03654
2566.94840,0.03625
2565.01981,0.03600
2563.09122,0.03582
2561.16264,0.03559
2559.23405,0.03534
2557.30547,0.03500
2555.37688,0.03476
2553.44829,0.03455
2551.51971,0.03430
2549.59112,0.03405
2547.66253,0.03369
2545.73395,0.03342
2543.80536,0.03331
2541.87677,0.03321
2539.94819,0.03292
2538.01960,0.03254
2536.09102,0.03235
2534.16243,0.03219
2532.23384,0.03189
2530.30526,0.03154
2528.37667,0.03135
2526.44808,0.03126
2524.51950,0.03112
2522.59091,0.03084
2520.66233,0.03038
2518.73374,0.03002
2516.80515,0.02988
2514.87657,0.02974
2512.94798,0.02949
2511.01939,0.02921
2509.09081,0.02892
2507.16222,0.02869
2505.23363,0.02848
2503.30505,0.02825
2501.37646,0.02798
2499.44788,0.02763
2497.51929,0.02748
2495.59070,0.02729
2493.66212,0.02685
2491.73353,0.02659
2489.80494,0.02640
2487.87636,0.02608
2485.94777,0.02581
2484.01919,0.02561
2482.09060,0.02529
2480.16201,0.02496
2478.23343,0.02477
2476.30484,0.02456
2474.37625,0.02425
2472.44767,0.02388
2470.51908,0.02361
2468.59049,0.02342
2466.66191,0.02321
2464.73332,0.02285
2462.80474,0.02253
2460.87615,0.02239
2458.94756,0.02202
2457.01898,0.02168
2455.09039,0.02153
2453.16180,0.02132
2451.23322,0.02108
2449.30463,0.02070
2447.37604,0.02038
2445.44746,0.02021
2443.51887,0.02000
2441.59029,0.01963
2439.66170,0.01925
2437.73311,0.01904
2435.80453,0.01884
2433.87594,0.01863
2431.94735,0.01843
2430.01877,0.01819
2428.09018,0.01789
2426.16160,0.01760
2424.23301,0.01742
2422.30442,0.01715
2420.37584,0.01685
2418.44725,0.01661
2416.51866,0.01633
2414.59008,0.01599
2412.66149,0.01574
2410.73290,0.01558
2408.80432,0.01528
2406.87573,0.01500
2404.94715,0.01480
2403.01856,0.01462
2401.08997,0.01432
2399.16139,0.01395
2397.23280,0.01382
2395.30421,0.01354
2393.37563,0.01320
2391.44704,0.01309
2389.51846,0.01295
2387.58987,0.01276
2385.66128,0.01248
2383.73270,0.01223
2381.80411,0.01206
2379.87552,0.01177
2377.94694,0.01140
2376.01835,0.01110
2374.08976,0.01086
2372.16118,0.01049
2370.23259,0.01005
2368.30401,0.00965
2366.37542,0.00938
2364.44683,0.00924
2362.51825,0.00901
2360.58966,0.00870
2358.66107,0.00844
2356.73249,0.00821
2354.80390,0.00798
2352.87532,0.00798
2350.94673,0.00821
2349.01814,0.00844
2347.08956,0.00850
2345.16097,0.00817
2343.23238,0.00785
2341.30380,0.00768
2339.37521,0.00743
2337.44662,0.00710
2335.51804,0.00679
2333.58945,0.00670
2331.66087,0.00663
2329.73228,0.00647
2327.80369,0.00626
2325.87511,0.00606
2323.94652,0.00594
2322.01793,0.00581
2320.08935,0.00575
2318.16076,0.00571
2316.23217,0.00572
2314.30359,0.00580
2312.37500,0.00564
2310.44642,0.00543
2308.51783,0.00530
2306.58924,0.00521
2304.66066,0.00521
2302.73207,0.00511
2300.80348,0.00500
2298.87490,0.00494
2296.94631,0.00473
2295.01773,0.00460
2293.08914,0.00452
2291.16055,0.00431
2289.23197,0.00421
2287.30338,0.00418
2285.37479,0.00408
2283.44621,0.00387
2281.51762,0.00372
2279.58903,0.00377
2277.66045,0.00370
2275.73186,0.00345
2273.80328,0.00332
2271.87469,0.00329
2269.94610,0.00317
2268.01752,0.00303
2266.08893,0.00301
2264.16034,0.00294
2262.23176,0.00287
2260.30317,0.00291
2258.37459,0.00287
2256.44600,0.00273
2254.51741,0.00259
2252.58883,0.00244
2250.66024,0.00229
2248.73165,0.00227
2246.80307,0.00223
2244.87448,0.00217
2242.94589,0.00225
2241.01731,0.00224
2239.08872,0.00211
2237.16014,0.00198
2235.23155,0.00182
2233.30296,0.00173
2231.37438,0.00172
2229.44579,0.00166
2227.51720,0.00149
2225.58862,0.00148
2223.66003,0.00149
2221.73145,0.00133
2219.80286,0.00125
2217.87427,0.00114
2215.94569,0.00102
2214.01710,0.00095
2212.08851,0.00084
2210.15993,0.00071
2208.23134,0.00059
2206.30275,0.00062
2204.37417,0.00066
2202.44558,0.00059
2200.51700,0.00060
2198.58841,0.00057
2196.65982,0.00038
2194.73124,0.00027
2192.80265,0.00030
2190.87406,0.00032
2188.94548,0.00035
2187.01689,0.00038
2185.08830,0.00047
2183.15972,0.00050
2181.23113,0.00037
2179.30255,0.00029
2177.37396,0.00029
2175.44537,0.00040
2173.51679,0.00046
2171.58820,0.00024
2169.65961,0.00000
2167.73103,0.00006
2165.80244,0.00029
2163.87386,0.00043
2161.94527,0.00043
2160.01668,0.00038
2158.08810,0.00040
2156.15951,0.00039
2154.23092,0.00037
2152.30234,0.00049
2150.37375,0.00058
2148.44516,0.00060
2146.51658,0.00058
2144.58799,0.00056
2142.65941,0.00060
2140.73082,0.00057
2138.80223,0.00051
2136.87365,0.00049
2134.94506,0.00050
2133.01647,0.00047
2131.08789,0.00044
2129.15930,0.00046
2127.23072,0.00042
2125.30213,0.00028
2123.37354,0.00018
2121.44496,0.00019
2119.51637,0.00022
2117.58778,0.00029
2115.65920,0.00024
2113.73061,0.00005
2111.80202,0.00000
2109.87344,0.00001
2107.94485,0.00009
2106.01627,0.00009
2104.08768,0.00006
2102.15909,0.00010
2100.23051,0.00003
2098.30192,0.00003
2096.37333,0.00006
2094.44475,0.00009
2092.51616,0.00015
2090.58758,0.00014
2088.65899,0.00013
2086.73040,0.00005
2084.80182,0.00010
2082.87323,0.00014
2080.94464,0.00007
2079.01606,0.00006
2077.08747,0.00000
2075.15888,-0.00003
2073.23030,-0.00002
2071.30171,-0.00006
2069.37313,-0.00010
2067.44454,-0.00021
2065.51595,-0.00035
2063.58737,-0.00035
2061.65878,-0.00033
2059.73019,-0.00042
2057.80161,-0.00034
2055.87302,-0.00021
2053.94443,-0.00020
2052.01585,-0.00013
2050.08726,-0.00004
2048.15868,0.00017
2046.23009,0.00031
2044.30150,0.00039
2042.37292,0.00050
2040.44433,0.00063
2038.51574,0.00094
2036.58716,0.00127
2034.65857,0.00152
2032.72999,0.00168
2030.80140,0.00184
2028.87281,0.00206
2026.94423,0.00215
2025.01564,0.00215
2023.08705,0.00219
2021.15847,0.00233
2019.22988,0.00246
2017.30129,0.00250
2015.37271,0.00256
2013.44412,0.00284
2011.51554,0.00320
2009.58695,0.00350
2007.65836,0.00382
2005.72978,0.00398
2003.80119,0.00411
2001.87260,0.00418
1999.94402,0.00411
1998.01543,0.00402
1996.08685,0.00410
1994.15826,0.00429
1992.22967,0.00400
1990.30109,0.00362
1988.37250,0.00365
1986.44391,0.00361
1984.51533,0.00351
1982.58674,0.00343
1980.65815,0.00335
1978.72957,0.00320
1976.80098,0.00305
1974.87240,0.00300
1972.94381,0.00289
1971.01522,0.00278
1969.08664,0.00259
1967.15805,0.00215
1965.22946,0.00174
1963.30088,0.00162
1961.37229,0.00140
1959.44371,0.00117
1957.51512,0.00112
1955.58653,0.00099
1953.65795,0.00089
1951.72936,0.00076
1949.80077,0.00072
1947.87219,0.00075
1945.94360,0.00068
1944.01501,0.00060
1942.08643,0.00019
1940.15784,0.00009
1938.22926,0.00026
1936.30067,0.00014
1934.37208,0.00009
1932.44350,-0.00005
1930.51491,-0.00012
1928.58632,-0.00016
1926.65774,-0.00014
1924.72915,0.00011
1922.80056,0.00000
1920.87198,0.00022
1918.94339,0.00061
1917.01481,0.00039
1915.08622,0.00084
1913.15763,0.00170
1911.22905,0.00226
1909.30046,0.00292
1907.37187,0.00361
1905.44329,0.00439
1903.51470,0.00517
1901.58612,0.00596
1899.65753,0.00675
1897.72894,0.00744
1895.80036,0.00811
1893.87177,0.00856
1891.94318,0.00933
1890.01460,0.00983
1888.08601,0.00991
1886.15742,0.01058
1884.22884,0.01103
1882.30025,0.01136
1880.37167,0.01167
1878.44308,0.01178
1876.51449,0.01204
1874.58591,0.01206
1872.65732,0.01230
1870.72873,0.01245
1868.80015,0.01170
1866.87156,0.01084
1864.94298,0.01073
1863.01439,0.01047
1861.08580,0.00962
1859.15722,0.00880
1857.22863,0.00771
1855.30004,0.00662
1853.37146,0.00543
1851.44287,0.00441
1849.51428,0.00347
1847.58570,0.00268
1845.65711,0.00239
1843.72853,0.00073
1841.79994,0.00000
1839.87135,0.00050
1837.94277,0.00022
1836.01418,-0.00013
1834.08559,-0.00038
1832.15701,-0.00010
1830.22842,-0.00058
1828.29984,-0.00120
1826.37125,-0.00059
1824.44266,-0.00071
1822.51408,-0.00037
1820.58549,0.00040
1818.65690,0.00080
1816.72832,0.00129
1814.79973,0.00193
1812.87114,0.00277
1810.94256,0.00317
1809.01397,0.00383
1807.08539,0.00498
1805.15680,0.00616
1803.22821,0.00738
1801.29963,0.00827
1799.37104,0.00931
1797.44245,0.01086
1795.51387,0.01273
1793.58528,0.01415
1791.65669,0.01458
1789.72811,0.01607
1787.79952,0.01873
1785.87094,0.02048
1783.94235,0.02183
1782.01376,0.02362
1780.08518,0.02533
1778.15659,0.02721
1776.22800,0.02921
1774.29942,0.03112
1772.37083,0.03143
1770.44225,0.03197
1768.51366,0.03440
1766.58507,0.03603
1764.65649,0.03834
1762.72790,0.04034
1760.79931,0.04112
1758.87073,0.04375
1756.94214,0.04616
1755.01355,0.04869
1753.08497,0.05221
1751.15638,0.05463
1749.22780,0.05689
1747.29921,0.06045
1745.37062,0.06459
1743.44204,0.06874
1741.51345,0.07299
1739.58486,0.07651
1737.65628,0.08054
1735.72769,0.08537
1733.79911,0.08656
1731.87052,0.08803
1729.94193,0.09237
1728.01335,0.09549
1726.08476,0.09883
1724.15617,0.10162
1722.22759,0.10445
1720.29900,0.10861
1718.37041,0.11102
1716.44183,0.11241
1714.51324,0.11519
1712.58466,0.11918
1710.65607,0.12273
1708.72748,0.12551
1706.79890,0.12823
1704.87031,0.13009
1702.94172,0.13388
1701.01314,0.13678
1699.08455,0.13725
1697.15596,0.14148
1695.22738,0.14399
1693.29879,0.14653
1691.37021,0.15128
1689.44162,0.15388
1687.51303,0.15748
1685.58445,0.16077
1683.65586,0.16022
1681.72727,0.16295
1679.79869,0.16696
1677.87010,0.17051
1675.94152,0.17288
1674.01293,0.17401
1672.08434,0.17691
1670.15576,0.17879
1668.22717,0.17924
1666.29858,0.18156
1664.37000,0.18410
1662.44141,0.18448
1660.51282,0.18495
1658.58424,0.18629
1656.65565,0.18762
1654.72707,0.18891
1652.79848,0.18418
1650.86989,0.18245
1648.94131,0.18580
1647.01272,0.18538
1645.08413,0.18372
1643.15555,0.18462
1641.22696,0.18555
1639.29838,0.18621
1637.36979,0.18681
1635.44120,0.18492
1633.51262,0.18346
1631.58403,0.18497
1629.65544,0.18479
1627.72686,0.18301
1625.79827,0.18136
1623.86968,0.17910
1621.94110,0.17592
1620.01251,0.17455
1618.08393,0.17347
1616.15534,0.16867
1614.22675,0.16639
1612.29817,0.16601
1610.36958,0.16450
1608.44099,0.16280
1606.51241,0.16106
1604.58382,0.15962
1602.65524,0.15739
1600.72665,0.15514
1598.79806,0.15309
1596.86948,0.15124
1594.94089,0.14940
1593.01230,0.14731
1591.08372,0.14559
1589.15513,0.14363
1587.22654,0.14187
1585.29796,0.13996
1583.36937,0.13816
1581.44079,0.13631
1579.51220,0.13491
1577.58361,0.13389
1575.65503,0.13018
1573.72644,0.12856
1571.79785,0.12937
1569.86927,0.12793
1567.94068,0.12650
1566.01209,0.12718
1564.08351,0.12747
1562.15492,0.12860
1560.22634,0.12886
1558.29775,0.12413
1556.36916,0.12494
1554.44058,0.12746
1552.51199,0.12800
1550.58340,0.12879
1548.65482,0.12878
1546.72623,0.12943
1544.79765,0.12933
1542.86906,0.12860
1540.94047,0.12790
1539.01189,0.12417
1537.08330,0.12484
1535.15471,0.12653
1533.22613,0.12504
1531.29754,0.12380
1529.36895,0.12390
1527.44037,0.12302
1525.51178,0.12117
1523.58320,0.12093
1521.65461,0.11940
1519.72602,0.11771
1517.79744,0.11834
1515.86885,0.11768
1513.94026,0.11661
1512.01168,0.11458
1510.08309,0.11192
1508.15451,0.10942
1506.22592,0.10244
1504.29733,0.09788
1502.36875,0.09706
1500.44016,0.09470
1498.51157,0.09114
1496.58299,0.08666
1494.65440,0.08305
1492.72581,0.08178
1490.79723,0.07947
1488.86864,0.07608
1486.94006,0.07451
1485.01147,0.07424
1483.08288,0.07443
1481.15430,0.07477
1479.22571,0.07593
1477.29712,0.07781
1475.36854,0.08005
1473.43995,0.08332
1471.51137,0.08773
1469.58278,0.09391
1467.65419,0.09991
1465.72561,0.10248
1463.79702,0.10301
1461.86843,0.10415
1459.93985,0.10577
1458.01126,0.10607
1456.08267,0.10427
1454.15409,0.10516
1452.22550,0.10644
1450.29692,0.10647
1448.36833,0.10624
1446.43974,0.10553
1444.51116,0.10560
1442.58257,0.10558
1440.65398,0.10547
1438.72540,0.10593
1436.79681,0.10450
1434.86822,0.10323
1432.93964,0.10406
1431.01105,0.10420
1429.08247,0.10338
1427.15388,0.10332
1425.22529,0.10341
1423.29671,0.10315
1421.36812,0.10361
1419.43953,0.10285
1417.51095,0.10114
1415.58236,0.10156
1413.65378,0.10179
1411.72519,0.10125
1409.79660,0.10062
1407.86802,0.09977
1405.93943,0.09870
1404.01084,0.09706
1402.08226,0.09629
1400.15367,0.09533
1398.22508,0.09374
1396.29650,0.09287
1394.36791,0.09165
1392.43933,0.09075
1390.51074,0.09075
1388.58215,0.09001
1386.65357,0.08781
1384.72498,0.08638
1382.79639,0.08745
1380.86781,0.08951
1378.93922,0.09075
1377.01064,0.09099
1375.08205,0.09036
1373.15346,0.08911
1371.22488,0.08827
1369.29629,0.08737
1367.36770,0.08581
1365.43912,0.08442
1363.51053,0.08265
1361.58194,0.08082
1359.65336,0.07983
1357.72477,0.07903
1355.79619,0.07814
1353.86760,0.07737
1351.93901,0.07686
1350.01043,0.07626
1348.08184,0.07563
1346.15325,0.07522
1344.22467,0.07476
1342.29608,0.07425
1340.36750,0.07368
1338.43891,0.07305
1336.51032,0.07270
1334.58174,0.07241
1332.65315,0.07194
1330.72456,0.07149
1328.79598,0.07105
1326.86739,0.07071
1324.93880,0.07045
1323.01022,0.07021
1321.08163,0.07007
1319.15305,0.06978
1317.22446,0.06936
1315.29587,0.06907
1313.36729,0.06889
1311.43870,0.06867
1309.51011,0.06841
1307.58153,0.06818
1305.65294,0.06802
1303.72435,0.06801
1301.79577,0.06794
1299.86718,0.06794
1297.93860,0.06824
1296.01001,0.06866
1294.08142,0.06916
1292.15284,0.06985
1290.22425,0.07072
1288.29566,0.07164
1286.36708,0.07269
1284.43849,0.07404
1282.50991,0.07552
1280.58132,0.07690
1278.65273,0.07827
1276.72415,0.07978
1274.79556,0.08133
1272.86697,0.08303
1270.93839,0.08486
1269.00980,0.08678
1267.08121,0.08912
1265.15263,0.09183
1263.22404,0.09478
1261.29546,0.09790
1259.36687,0.10155
1257.43828,0.10591
1255.50970,0.11052
1253.58111,0.11548
1251.65252,0.12074
1249.72394,0.12588
1247.79535,0.13088
1245.86677,0.13579
1243.93818,0.14051
1242.00959,0.14488
1240.08101,0.14880
1238.15242,0.15238
1236.22383,0.15569
1234.29525,0.15855
1232.36666,0.16115
1230.43807,0.16367
1228.50949,0.16599
1226.58090,0.16825
1224.65232,0.17056
1222.72373,0.17303
1220.79514,0.17551
1218.86656,0.17791
1216.93797,0.18049
1215.00938,0.18324
1213.08080,0.18615
1211.15221,0.18895
1209.22363,0.19157
1207.29504,0.19426
1205.36645,0.19685
1203.43787,0.19936
1201.50928,0.20174
1199.58069,0.20373
1197.65211,0.20565
1195.72352,0.20771
1193.79493,0.20965
1191.86635,0.21156
1189.93776,0.21351
1188.00918,0.21517
1186.08059,0.21675
1184.15200,0.21869
1182.22342,0.22076
1180.29483,0.22299
1178.36624,0.22550
1176.43766,0.22805
1174.50907,0.23078
1172.58048,0.23375
1170.65190,0.23705
1168.72331,0.24059
1166.79473,0.24398
1164.86614,0.24713
1162.93755,0.25000
1161.00897,0.25200
1159.08038,0.25280
1157.15179,0.25341
1155.22321,0.25435
1153.29462,0.25539
1151.36604,0.25703
1149.43745,0.25925
1147.50886,0.26144
1145.58028,0.26366
1143.65169,0.26618
1141.72310,0.26901
1139.79452,0.27263
1137.86593,0.27653
1135.93734,0.27994
1134.00876,0.28367
1132.08017,0.28760
1130.15159,0.29147
1128.22300,0.29619
1126.29441,0.30160
1124.36583,0.30690
1122.43724,0.31212
1120.50865,0.31755
1118.58007,0.32305
1116.65148,0.32893
1114.72290,0.33539
1112.79431,0.34202
1110.86572,0.34805
1108.93714,0.35338
1107.00855,0.35890
1105.07996,0.36396
1103.15138,0.36792
1101.22279,0.37155
1099.29420,0.37474
1097.36562,0.37650
1095.43703,0.37780
1093.50845,0.37949
1091.57986,0.38047
1089.65127,0.38097
1087.72269,0.38124
1085.79410,0.38099
1083.86551,0.38045
1081.93693,0.37979
1080.00834,0.37902
1078.07976,0.37819
1076.15117,0.37767
1074.22258,0.37677
1072.29400,0.37625
1070.36541,0.37682
1068.43682,0.37761
1066.50824,0.37809
1064.57965,0.37766
1062.65106,0.37745
1060.72248,0.37751
1058.79389,0.37677
1056.86531,0.37551
1054.93672,0.37380
1053.00813,0.37238
1051.07955,0.37160
1049.15096,0.37122
1047.22237,0.37150
1045.29379,0.37306
1043.36520,0.37530
1041.43661,0.37736
1039.50803,0.38029
1037.57944,0.38314
1035.65086,0.38480
1033.72227,0.38634
1031.79368,0.38696
1029.86510,0.38618
1027.93651,0.38482
1026.00792,0.38288
1024.07934,0.38018
1022.15075,0.37692
1020.22217,0.37377
1018.29358,0.37138
1016.36499,0.36933
1014.43641,0.36705
1012.50782,0.36465
1010.57923,0.36220
1008.65065,0.35941
1006.72206,0.35592
1004.79347,0.35206
1002.86489,0.34845
1000.93630,0.34450
999.00772,0.33955
997.07913,0.33409
995.15054,0.32855
993.22196,0.32309
991.29337,0.31781
989.36478,0.31226
987.43620,0.30601
985.50761,0.29904
983.57903,0.29115
981.65044,0.28245
979.72185,0.27297
977.79327,0.26283
975.86468,0.25237
973.93609,0.24154
972.00751,0.23082
970.07892,0.22004
968.15033,0.20921
966.22175,0.19960
964.29316,0.19093
962.36458,0.18260
960.43599,0.17478
958.50740,0.16774
956.57882,0.16192
954.65023,0.15678
952.72164,0.15225
950.79306,0.14832
948.86447,0.14461
946.93589,0.14140
945.00730,0.13882
943.07871,0.13717
941.15013,0.13596
939.22154,0.13448
937.29295,0.13288
935.36437,0.13146
933.43578,0.13012
931.50719,0.12872
929.57861,0.12756
927.65002,0.12626
925.72144,0.12481
923.79285,0.12423
921.86426,0.12424
919.93568,0.12393
918.00709,0.12348
916.07850,0.12291
914.14992,0.12181
912.22133,0.12003
910.29274,0.11708
908.36416,0.11275
906.43557,0.10706
904.50699,0.10042
902.57840,0.09355
900.64981,0.08631
898.72123,0.07883
896.79264,0.07198
894.86405,0.06642
892.93547,0.06172
891.00688,0.05729
889.07830,0.05315
887.14971,0.04908
885.22112,0.04525
883.29254,0.04139
881.36395,0.03728
879.43536,0.03368
877.50678,0.03056
875.57819,0.02746
873.64960,0.02435
871.72102,0.02083
869.79243,0.01725
867.86385,0.01427
865.93526,0.01115
864.00667,0.00781
862.07809,0.00532
860.14950,0.00404
858.22091,0.00307
856.29233,0.00152
854.36374,0.00037
852.43516,0.00000
850.50657,0.00065
848.57798,0.00227
846.64940,0.00340
844.72081,0.00504
842.79222,0.00737
840.86364,0.00989
838.93505,0.01372
837.00646,0.01786
835.07788,0.02147
833.14929,0.02470
831.22071,0.02753
829.29212,0.02968
827.36353,0.03077
825.43495,0.03150
823.50636,0.03197
821.57777,0.03215
819.64919,0.03297
817.72060,0.03440
815.79201,0.03613
813.86343,0.03918
811.93484,0.04373
810.00626,0.04957
808.07767,0.05769
806.14908,0.06765
804.22050,0.07759
802.29191,0.08544
800.36332,0.08906
798.43474,0.08782
796.50615,0.08288
794.57757,0.07641
792.64898,0.07025
790.72039,0.06520
788.79181,0.06145
786.86322,0.05974
784.93463,0.06072
783.00605,0.06325
781.07746,0.06506
779.14887,0.06385
777.22029,0.05928
775.29170,0.05259
773.36312,0.04509
771.43453,0.03857
769.50594,0.03393
767.57736,0.03104
765.64877,0.02994
763.72018,0.03010
761.79160,0.03036
759.86301,0.03053
757.93443,0.03101
756.00584,0.03114
754.07725,0.03100
752.14867,0.03085
750.22008,0.02994
748.29149,0.02822
746.36291,0.02575
744.43432,0.02313
742.50573,0.02032
740.57715,0.01688
738.64856,0.01386
736.71998,0.01122
734.79139,0.00881
732.86280,0.00724
730.93422,0.00647
729.00563,0.00644
727.07704,0.00644
725.14846,0.00620
723.21987,0.00620
721.29129,0.00575
719.36270,0.00440
717.43411,0.00279
715.50553,0.00130
713.57694,0.00069
711.64835,0.00106
709.71977,0.00165
707.79118,0.00286
705.86259,0.00493
703.93401,0.00792
702.00542,0.01164
700.07684,0.01661
698.14825,0.02352
696.21966,0.02892
694.29108,0.02886
692.36249,0.02410
690.43390,0.01861
688.50532,0.01480
686.57673,0.01186
684.64814,0.00962
682.71956,0.00819
680.79097,0.00710
678.86239,0.00620
676.93380,0.00566
675.00521,0.00469
673.07663,0.00329
671.14804,0.00273
669.21945,0.00147
667.29087,0.00000
665.36228,-0.00040
663.43370,-0.00099
661.50511,-0.00163
659.57652,-0.00198
657.64794,-0.00165
655.71935,-0.00115
653.79076,-0.00060
651.86218,0.00018
649.93359,0.00044
648.00500,0.00159
646.07642,0.00196
644.14783,0.00058
642.21925,0.00017
640.29066,0.00113
638.36207,0.00216
636.43349,0.00208
634.50490,0.00223
632.57631,0.00260
630.64773,0.00225
628.71914,0.00265
626.79056,0.00355
624.86197,0.00450
622.93338,0.00476
621.00480,0.00494
619.07621,0.00659
617.14762,0.00788
615.21904,0.00817
613.29045,0.00888
611.36186,0.00977
609.43328,0.01052
607.50469,0.01127
605.57611,0.01212
603.64752,0.01437
601.71893,0.01755
599.79035,0.01992
597.86176,0.02263
595.93317,0.02548
594.00459,0.02778
592.07600,0.03074
590.14742,0.03406
588.21883,0.03677
586.29024,0.04034
584.36166,0.04558
582.43307,0.05001
580.50448,0.05409
578.57590,0.05934
576.64731,0.06421
574.71872,0.06893
572.79014,0.07497
570.86155,0.08111
568.93297,0.08584
567.00438,0.09071
565.07579,0.09620
563.14721,0.10173
561.21862,0.10804
559.29003,0.11393
557.36145,0.11920
555.43286,0.12583
553.50427,0.13323
551.57569,0.13842
549.64710,0.14165
547.71852,0.14555
545.78993,0.15071
543.86134,0.15586
541.93276,0.16136
540.00417,0.16924
538.07558,0.17652
536.14700,0.18183
534.21841,0.18638
532.28983,0.18938
530.36124,0.19122
528.43265,0.18943
526.50407,0.18769
524.57548,0.18806
522.64689,0.18397
520.71831,0.17942
518.78972,0.17675
516.86113,0.17084
514.93255,0.16300
513.00396,0.15547
511.07538,0.14874
509.14679,0.14395
507.21820,0.14075
505.28962,0.13921
503.36103,0.13828
501.43244,0.13727
499.50386,0.14038
497.57527,0.14685
495.64669,0.15281
493.71810,0.16088
491.78951,0.17250
489.86093,0.18599
487.93234,0.19898
486.00375,0.21064
484.07517,0.22346
482.14658,0.23668
480.21799,0.24813
478.28941,0.25737
476.36082,0.26125
474.43224,0.26038
472.50365,0.26026
470.57506,0.26049
468.64648,0.25639
466.71789,0.24830
464.78930,0.24018
462.86072,0.22895
460.93213,0.21397
459.00355,0.19992
457.07496,0.18551
455.14637,0.17180
453.21779,0.16143
451.28920,0.15208
449.36061,0.14015
447.43203,0.12866
445.50344,0.12085
443.57485,0.11450
441.64627,0.10784
439.71768,0.10317
437.78910,0.10130
435.86051,0.09857
433.93192,0.09718
432.00334,0.09907
430.07475,0.09733
428.14616,0.08658
426.21758,0.07735
424.28899,0.07632
422.36040,0.07127
420.43182,0.06101
418.50323,0.05002
416.57465,0.04258
414.64606,0.03878
412.71747,0.03892
410.78889,0.03651
408.86030,0.02390
406.93171,0.01492
405.00313,0.00595
403.07454,0.00005
401.14596,0.00061
399.21737,0.00000
