3747.24323,0.00059
3745.31464,0.00240
3743.38605,0.00000
3741.45747,0.00072
3739.52888,0.00391
3737.60030,0.00506
3735.67171,0.00415
3733.74312,0.00326
3731.81454,0.00396
3729.88595,0.00506
3727.95736,0.00668
3726.02878,0.00743
3724.10019,0.00778
3722.17161,0.00929
3720.24302,0.01029
3718.31443,0.01227
3716.38585,0.01426
3714.45726,0.01668
3712.52867,0.01903
3710.60009,0.01972
3708.67150,0.02265
3706.74291,0.02604
3704.81433,0.02977
3702.88574,0.03288
3700.95716,0.03423
3699.02857,0.03627
3697.09998,0.03756
3695.17140,0.03874
3693.24281,0.03955
3691.31422,0.04023
3689.38564,0.04038
3687.45705,0.04034
3685.52846,0.04317
3683.59988,0.04658
3681.67129,0.05014
3679.74271,0.05339
3677.81412,0.05728
3675.88553,0.05990
3673.95695,0.06132
3672.02836,0.06697
3670.09977,0.07081
3668.17119,0.07321
3666.24260,0.07837
3664.31402,0.08316
3662.38543,0.08735
3660.45684,0.09101
3658.52826,0.09489
3656.59967,0.09774
3654.67108,0.09988
3652.74250,0.10427
3650.81391,0.10741
3648.88532,0.10789
3646.95674,0.10947
3645.02815,0.11313
3643.09957,0.11693
3641.17098,0.11978
3639.24239,0.12239
3637.31381,0.12489
3635.38522,0.12749
3633.45663,0.12967
3631.52805,0.13234
3629.59946,0.13426
3627.67088,0.13347
3625.74229,0.13563
3623.81370,0.13851
3621.88512,0.13998
3619.95653,0.14003
3618.02794,0.13770
3616.09936,0.13727
3614.17077,0.13729
3612.24218,0.13632
3610.31360,0.13619
3608.38501,0.13557
3606.45643,0.13500
3604.52784,0.13561
3602.59925,0.13615
3600.67067,0.13573
3598.74208,0.13548
3596.81349,0.13575
3594.88491,0.13575
3592.95632,0.13575
3591.02774,0.13650
3589.09915,0.13735
3587.17056,0.13690
3585.24198,0.13701
3583.31339,0.13845
3581.38480,0.13963
3579.45622,0.14047
3577.52763,0.14130
3575.59904,0.14226
3573.67046,0.14329
3571.74187,0.14450
3569.81329,0.14588
3567.88470,0.14659
3565.95611,0.14689
3564.02753,0.14817
3562.09894,0.14983
3560.17035,0.15105
3558.24177,0.15225
3556.31318,0.15357
3554.38459,0.15493
3552.45601,0.15590
3550.52742,0.15704
3548.59884,0.15887
3546.67025,0.16003
3544.74166,0.16082
3542.81308,0.16195
3540.88449,0.16323
3538.95590,0.16470
3537.02732,0.16570
3535.09873,0.16658
3533.17015,0.16793
3531.24156,0.16955
3529.31297,0.17062
3527.38439,0.17114
3525.45580,0.17219
3523.52721,0.17338
3521.59863,0.17444
3519.67004,0.17573
3517.74145,0.17694
3515.81287,0.17790
3513.88428,0.17897
3511.95570,0.18021
3510.02711,0.18119
3508.09852,0.18202
3506.16994,0.18305
3504.24135,0.18423
3502.31276,0.18514
3500.38418,0.18606
3498.45559,0.18713
3496.52701,0.18806
3494.59842,0.18906
3492.66983,0.18998
3490.74125,0.19090
3488.81266,0.19181
3486.88407,0.19262
3484.95549,0.19356
3483.02690,0.19454
3481.09831,0.19534
3479.16973,0.19600
3477.24114,0.19689
3475.31256,0.19770
3473.38397,0.19833
3471.45538,0.19898
3469.52680,0.19968
3467.59821,0.20050
3465.66962,0.20113
3463.74104,0.20183
3461.81245,0.20260
3459.88386,0.20336
3457.95528,0.20411
3456.02669,0.20468
3454.09811,0.20519
3452.16952,0.20574
3450.24093,0.20634
3448.31235,0.20657
3446.38376,0.20697
3444.45517,0.20784
3442.52659,0.20862
3440.59800,0.20939
3438.66942,0.20998
3436.74083,0.21050
3434.81224,0.21109
3432.88366,0.21167
3430.95507,0.21219
3429.02648,0.21256
3427.09790,0.21310
3425.16931,0.21387
3423.24072,0.21449
3421.31214,0.21485
3419.38355,0.21522
3417.45497,0.21543
3415.52638,0.21564
3413.59779,0.21628
3411.66921,0.21677
3409.74062,0.21712
3407.81203,0.21771
3405.88345,0.21817
3403.95486,0.21848
3402.02628,0.21886
3400.09769,0.21911
3398.16910,0.21937
3396.24052,0.21977
3394.31193,0.22000
3392.38334,0.22014
3390.45476,0.22027
3388.52617,0.22055
3386.59758,0.22094
3384.66900,0.22131
3382.74041,0.22156
3380.81183,0.22174
3378.88324,0.22211
3376.95465,0.22246
3375.02607,0.22279
3373.09748,0.22310
3371.16889,0.22340
3369.24031,0.22371
3367.31172,0.22387
3365.38314,0.22430
3363.45455,0.22470
3361.52596,0.22484
3359.59738,0.22500
3357.66879,0.22525
3355.74020,0.22569
3353.81162,0.22592
3351.88303,0.22605
3349.95444,0.22621
3348.02586,0.22628
3346.09727,0.22655
3344.16869,0.22685
3342.24010,0.22688
3340.31151,0.22695
3338.38293,0.22720
3336.45434,0.22764
3334.52575,0.22794
3332.59717,0.22790
3330.66858,0.22803
3328.73999,0.22809
3326.81141,0.22783
3324.88282,0.22764
3322.95424,0.22778
3321.02565,0.22812
3319.09706,0.22792
3317.16848,0.22766
3315.23989,0.22797
3313.31130,0.22828
3311.38272,0.22839
3309.45413,0.22812
3307.52555,0.22782
3305.59696,0.22780
3303.66837,0.22776
3301.73979,0.22772
3299.81120,0.22757
3297.88261,0.22740
3295.95403,0.22735
3294.02544,0.22723
3292.09685,0.22679
3290.16827,0.22622
3288.23968,0.22606
3286.31110,0.22586
3284.38251,0.22529
3282.45392,0.22482
3280.52534,0.22448
3278.59675,0.22403
3276.66816,0.22347
3274.73958,0.22306
3272.81099,0.22247
3270.88241,0.22142
3268.95382,0.22034
3267.02523,0.21916
3265.09665,0.21816
3263.16806,0.21759
3261.23947,0.21686
3259.31089,0.21590
3257.38230,0.21486
3255.45371,0.21380
3253.52513,0.21273
3251.59654,0.21184
3249.66796,0.21105
3247.73937,0.21006
3245.81078,0.20913
3243.88220,0.20824
3241.95361,0.20737
3240.02502,0.20661
3238.09644,0.20579
3236.16785,0.20508
3234.23927,0.20441
3232.31068,0.20355
3230.38209,0.20276
3228.45351,0.20209
3226.52492,0.20121
3224.59633,0.20043
3222.66775,0.19978
3220.73916,0.19902
3218.81057,0.19829
3216.88199,0.19736
3214.95340,0.19635
3213.02482,0.19560
3211.09623,0.19502
3209.16764,0.19424
3207.23906,0.19330
3205.31047,0.19266
3203.38188,0.19186
3201.45330,0.19098
3199.52471,0.19024
3197.59612,0.18935
3195.66754,0.18868
3193.73895,0.18792
3191.81037,0.18698
3189.88178,0.18625
3187.95319,0.18564
3186.02461,0.18491
3184.09602,0.18380
3182.16743,0.18273
3180.23885,0.18184
3178.31026,0.18090
3176.38168,0.18022
3174.45309,0.17960
3172.52450,0.17868
3170.59592,0.17762
3168.66733,0.17678
3166.73874,0.17620
3164.81016,0.17534
3162.88157,0.17424
3160.95298,0.17333
3159.02440,0.17256
3157.09581,0.17189
3155.16723,0.17130
3153.23864,0.17065
3151.31005,0.16981
3149.38147,0.16907
3147.45288,0.16844
3145.52429,0.16750
3143.59571,0.16670
3141.66712,0.16625
3139.73854,0.16573
3137.80995,0.16517
3135.88136,0.16443
3133.95278,0.16356
3132.02419,0.16293
3130.09560,0.16250
3128.16702,0.16202
3126.23843,0.16142
3124.30984,0.16100
3122.38126,0.16078
3120.45267,0.16029
3118.52409,0.15981
3116.59550,0.15964
3114.66691,0.15939
3112.73833,0.15885
3110.80974,0.15828
3108.88115,0.15796
3106.95257,0.15769
3105.02398,0.15737
3103.09540,0.15703
3101.16681,0.15667
3099.23822,0.15642
3097.30964,0.15609
3095.38105,0.15565
3093.45246,0.15534
3091.52388,0.15520
3089.59529,0.15508
3087.66670,0.15495
3085.73812,0.15462
3083.80953,0.15408
3081.88095,0.15371
3079.95236,0.15333
3078.02377,0.15291
3076.09519,0.15236
3074.16660,0.15173
3072.23801,0.15140
3070.30943,0.15097
3068.38084,0.15049
3066.45225,0.14997
3064.52367,0.14928
3062.59508,0.14872
3060.66650,0.14810
3058.73791,0.14746
3056.80932,0.14680
3054.88074,0.14601
3052.95215,0.14533
3051.02356,0.14466
3049.09498,0.14407
3047.16639,0.14349
3045.23781,0.14296
3043.30922,0.14252
3041.38063,0.14192
3039.45205,0.14119
3037.52346,0.14045
3035.59487,0.13997
3033.66629,0.13972
3031.73770,0.13928
3029.80911,0.13864
3027.88053,0.13810
3025.95194,0.13781
3024.02336,0.13757
3022.09477,0.13715
3020.16618,0.13674
3018.23760,0.13654
3016.30901,0.13649
3014.38042,0.13651
3012.45184,0.13662
3010.52325,0.13683
3008.59467,0.13706
3006.66608,0.13738
3004.73749,0.13782
3002.80891,0.13810
3000.88032,0.13843
2998.95173,0.13910
2997.02315,0.13987
2995.09456,0.14076
2993.16597,0.14186
2991.23739,0.14294
2989.30880,0.14414
2987.38022,0.14565
2985.45163,0.14727
2983.52304,0.14912
2981.59446,0.15116
2979.66587,0.15308
2977.73728,0.15516
2975.80870,0.15734
2973.88011,0.15937
2971.95153,0.16153
2970.02294,0.16386
2968.09435,0.16618
2966.16577,0.16854
2964.23718,0.17109
2962.30859,0.17372
2960.38001,0.17602
2958.45142,0.17808
2956.52283,0.18006
2954.59425,0.18200
2952.66566,0.18408
2950.73708,0.18599
2948.80849,0.18797
2946.87990,0.19064
2944.95132,0.19371
2943.02273,0.19732
2941.09414,0.20152
2939.16556,0.20603
2937.23697,0.21088
2935.30838,0.21565
2933.37980,0.21999
2931.45121,0.22400
2929.52263,0.22783
2927.59404,0.23151
2925.66545,0.23464
2923.73687,0.23664
2921.80828,0.23731
2919.87969,0.23656
2917.95111,0.23341
2916.02252,0.22707
2914.09394,0.21831
2912.16535,0.20932
2910.23676,0.20191
2908.30818,0.19610
2906.37959,0.19134
2904.45100,0.18745
2902.52242,0.18424
2900.59383,0.18114
2898.66524,0.17797
2896.73666,0.17515
2894.80807,0.17258
2892.87949,0.17012
2890.95090,0.16771
2889.02231,0.16519
2887.09373,0.16287
2885.16514,0.16089
2883.23655,0.15914
2881.30797,0.15775
2879.37938,0.15693
2877.45080,0.15662
2875.52221,0.15656
2873.59362,0.15671
2871.66504,0.15701
2869.73645,0.15722
2867.80786,0.15750
2865.87928,0.15839
2863.95069,0.16025
2862.02210,0.16330
2860.09352,0.16770
2858.16493,0.17331
2856.23635,0.17940
2854.30776,0.18466
2852.37917,0.18744
2850.45059,0.18600
2848.52200,0.17905
2846.59341,0.16798
2844.66483,0.15628
2842.73624,0.14596
2840.80766,0.13746
2838.87907,0.13073
2836.95048,0.12517
2835.02190,0.12056
2833.09331,0.11686
2831.16472,0.11385
2829.23614,0.11135
2827.30755,0.10899
2825.37896,0.10682
2823.45038,0.10497
2821.52179,0.10318
2819.59321,0.10150
2817.66462,0.10010
2815.73603,0.09876
2813.80745,0.09754
2811.87886,0.09642
2809.95027,0.09518
2808.02169,0.09396
2806.09310,0.09287
2804.16451,0.09187
2802.23593,0.09095
2800.30734,0.09006
2798.37876,0.08922
2796.45017,0.08837
2794.52158,0.08755
2792.59300,0.08688
2790.66441,0.08619
2788.73582,0.08538
2786.80724,0.08460
2784.87865,0.08394
2782.95007,0.08332
2781.02148,0.08264
2779.09289,0.08191
2777.16431,0.08131
2775.23572,0.08077
2773.30713,0.08021
2771.37855,0.07972
2769.44996,0.07925
2767.52137,0.07886
2765.59279,0.07837
2763.66420,0.07771
2761.73562,0.07717
2759.80703,0.07679
2757.87844,0.07640
2755.94986,0.07593
2754.02127,0.07554
2752.09268,0.07520
2750.16410,0.07484
2748.23551,0.07448
2746.30693,0.07410
2744.37834,0.07385
2742.44975,0.07351
2740.52117,0.07298
2738.59258,0.07254
2736.66399,0.07226
2734.73541,0.07203
2732.80682,0.07164
2730.87823,0.07129
2728.94965,0.07093
2727.02106,0.07041
2725.09248,0.06990
2723.16389,0.06949
2721.23530,0.06908
2719.30672,0.06852
2717.37813,0.06801
2715.44954,0.06757
2713.52096,0.06707
2711.59237,0.06672
2709.66379,0.06635
2707.73520,0.06590
2705.80661,0.06554
2703.87803,0.06520
2701.94944,0.06477
2700.02085,0.06439
2698.09227,0.06403
2696.16368,0.06367
2694.23509,0.06335
2692.30651,0.06297
2690.37792,0.06260
2688.44934,0.06243
2686.52075,0.06226
2684.59216,0.06193
2682.66358,0.06157
2680.73499,0.06118
2678.80640,0.06078
2676.87782,0.06038
2674.94923,0.06000
2673.02064,0.05971
2671.09206,0.05939
2669.16347,0.05895
2667.23489,0.05868
2665.30630,0.05843
2663.37771,0.05797
2661.44913,0.05753
2659.52054,0.05723
2657.59195,0.05695
2655.66337,0.05663
2653.73478,0.05637
2651.80620,0.05605
2649.87761,0.05561
2647.94902,0.05527
2646.02044,0.05504
2644.09185,0.05482
2642.16326,0.05443
2640.23468,0.05397
2638.30609,0.05365
2636.37750,0.05335
2634.44892,0.05303
2632.52033,0.05276
2630.59175,0.05241
2628.66316,0.05200
2626.73457,0.05170
2624.80599,0.05148
2622.87740,0.05114
2620.94881,0.05061
2619.02023,0.05016
2617.09164,0.04995
2615.16306,0.04968
2613.23447,0.04931
2611.30588,0.04895
2609.37730,0.04864
2607.44871,0.04834
2605.52012,0.04794
2603.59154,0.04759
2601.66295,0.04725
2599.73436,0.04693
2597.80578,0.04664
2595.87719,0.04623
2593.94861,0.04586
2592.02002,0.04554
2590.09143,0.04518
2588.16285,0.04490
2586.23426,0.04465
2584.30567,0.04426
2582.37709,0.04375
2580.44850,0.04342
2578.51991,0.04326
2576.59133,0.04294
2574.66274,0.04255
2572.73416,0.04226
2570.80557,0.04196
2568.87698,0.04169
2566.94840,0.04147
2565.01981,0.04122
2563.09122,0.04089
2561.16264,0.04051
2559.23405,0.04019
2557.30547,0.03988
2555.37688,0.03968
2553.44829,0.03950
2551.51971,0.03918
2549.59112,0.03895
2547.66253,0.03874
2545.73395,0.03837
2543.80536,0.03804
2541.87677,0.03784
2539.94819,0.03770
2538.01960,0.03748
2536.09102,0.03705
2534.16243,0.03663
2532.23384,0.03639
2530.30526,0.03627
2528.37667,0.03614
2526.44808,0.03589
2524.51950,0.03559
2522.59091,0.03526
2520.66233,0.03489
2518.73374,0.03454
2516.80515,0.03424
2514.87657,0.03402
2512.94798,0.03376
2511.01939,0.03344
2509.09081,0.03323
2507.16222,0.03294
2505.23363,0.03256
2503.30505,0.03227
2501.37646,0.03204
2499.44788,0.03172
2497.51929,0.03130
2495.59070,0.03094
2493.66212,0.03066
2491.73353,0.03036
2489.80494,0.03008
2487.87636,0.02984
2485.94777,0.02958
2484.01919,0.02926
2482.09060,0.02903
2480.16201,0.02881
2478.23343,0.02846
2476.30484,0.02799
2474.37625,0.02760
2472.44767,0.02740
2470.51908,0.02713
2468.59049,0.02671
2466.66191,0.02638
2464.73332,0.02617
2462.80474,0.02590
2460.87615,0.02555
2458.94756,0.02526
2457.01898,0.02504
2455.09039,0.02473
2453.16180,0.02434
2451.23322,0.02406
2449.30463,0.02391
2447.37604,0.02368
2445.44746,0.02335
2443.51887,0.02298
2441.59029,0.02260
2439.66170,0.02221
2437.73311,0.02198
2435.80453,0.02175
2433.87594,0.02138
2431.94735,0.02110
2430.01877,0.02078
2428.09018,0.02039
2426.16160,0.02015
2424.23301,0.01998
2422.30442,0.01974
2420.37584,0.01945
2418.44725,0.01920
2416.51866,0.01889
2414.59008,0.01846
2412.66149,0.01817
2410.73290,0.01802
2408.80432,0.01772
2406.87573,0.01740
2404.94715,0.01723
2403.01856,0.01696
2401.08997,0.01662
2399.16139,0.01630
2397.23280,0.01599
2395.30421,0.01574
2393.37563,0.01553
2391.44704,0.01530
2389.51846,0.01505
2387.58987,0.01482
2385.66128,0.01453
2383.73270,0.01425
2381.80411,0.01402
2379.87552,0.01372
2377.94694,0.01331
2376.01835,0.01271
2374.08976,0.01216
2372.16118,0.01180
2370.23259,0.01135
2368.30401,0.01082
2366.37542,0.01035
2364.44683,0.00995
2362.51825,0.00962
2360.58966,0.00937
2358.66107,0.00921
2356.73249,0.00919
2354.80390,0.00925
2352.87532,0.00931
2350.94673,0.00958
2349.01814,0.00993
2347.08956,0.00989
2345.16097,0.00933
2343.23238,0.00870
2341.30380,0.00838
2339.37521,0.00828
2337.44662,0.00819
2335.51804,0.00796
2333.58945,0.00763
2331.66087,0.00741
2329.73228,0.00730
2327.80369,0.00725
2325.87511,0.00726
2323.94652,0.00712
2322.01793,0.00692
2320.08935,0.00697
2318.16076,0.00703
2316.23217,0.00698
2314.30359,0.00702
2312.37500,0.00700
2310.44642,0.00695
2308.51783,0.00688
2306.58924,0.00666
2304.66066,0.00641
2302.73207,0.00635
2300.80348,0.00630
2298.87490,0.00609
2296.94631,0.00593
2295.01773,0.00590
2293.08914,0.00587
2291.16055,0.00579
2289.23197,0.00567
2287.30338,0.00553
2285.37479,0.00537
2283.44621,0.00519
2281.51762,0.00509
2279.58903,0.00502
2277.66045,0.00485
2275.73186,0.00464
2273.80328,0.00439
2271.87469,0.00422
2269.94610,0.00427
2268.01752,0.00432
2266.08893,0.00411
2264.16034,0.00379
2262.23176,0.00360
2260.30317,0.00353
2258.37459,0.00347
2256.44600,0.00334
2254.51741,0.00322
2252.58883,0.00318
2250.66024,0.00310
2248.73165,0.00300
2246.80307,0.00290
2244.87448,0.00285
2242.94589,0.00282
2241.01731,0.00276
2239.08872,0.00269
2237.16014,0.00259
2235.23155,0.00250
2233.30296,0.00234
2231.37438,0.00216
2229.44579,0.00203
2227.51720,0.00192
2225.58862,0.00191
2223.66003,0.00180
2221.73145,0.00173
2219.80286,0.00178
2217.87427,0.00181
2215.94569,0.00174
2214.01710,0.00155
2212.08851,0.00146
2210.15993,0.00142
2208.23134,0.00136
2206.30275,0.00131
2204.37417,0.00120
2202.44558,0.00109
2200.51700,0.00101
2198.58841,0.00108
2196.65982,0.00117
2194.73124,0.00112
2192.80265,0.00112
2190.87406,0.00109
2188.94548,0.00104
2187.01689,0.00100
2185.08830,0.00101
2183.15972,0.00099
2181.23113,0.00088
2179.30255,0.00078
2177.37396,0.00077
2175.44537,0.00087
2173.51679,0.00090
2171.58820,0.00074
2169.65961,0.00062
2167.73103,0.00071
2165.80244,0.00087
2163.87386,0.00087
2161.94527,0.00087
2160.01668,0.00084
2158.08810,0.00072
2156.15951,0.00068
2154.23092,0.00076
2152.30234,0.00082
2150.37375,0.00077
2148.44516,0.00077
2146.51658,0.00079
2144.58799,0.00082
2142.65941,0.00084
2140.73082,0.00082
2138.80223,0.00078
2136.87365,0.00065
2134.94506,0.00061
2133.01647,0.00056
2131.08789,0.00051
2129.15930,0.00053
2127.23072,0.00048
2125.30213,0.00054
2123.37354,0.00057
2121.44496,0.00046
2119.51637,0.00039
2117.58778,0.00036
2115.65920,0.00037
2113.73061,0.00029
2111.80202,0.00026
2109.87344,0.00031
2107.94485,0.00039
2106.01627,0.00036
2104.08768,0.00023
2102.15909,0.00026
2100.23051,0.00031
2098.30192,0.00033
2096.37333,0.00032
2094.44475,0.00025
2092.51616,0.00028
2090.58758,0.00032
2088.65899,0.00027
2086.73040,0.00023
2084.80182,0.00026
2082.87323,0.00022
2080.94464,0.00006
2079.01606,0.00000
2077.08747,0.00004
2075.15888,0.00011
2073.23030,0.00018
2071.30171,0.00021
2069.37313,0.00017
2067.44454,0.00019
2065.51595,0.00020
2063.58737,0.00019
2061.65878,0.00028
2059.73019,0.00032
2057.80161,0.00029
2055.87302,0.00027
2053.94443,0.00029
2052.01585,0.00033
2050.08726,0.00043
2048.15868,0.00049
2046.23009,0.00046
2044.30150,0.00055
2042.37292,0.00070
2040.44433,0.00081
2038.51574,0.00090
2036.58716,0.00106
2034.65857,0.00123
2032.72999,0.00125
2030.80140,0.00131
2028.87281,0.00139
2026.94423,0.00144
2025.01564,0.00152
2023.08705,0.00160
2021.15847,0.00172
2019.22988,0.00176
2017.30129,0.00169
2015.37271,0.00171
2013.44412,0.00185
2011.51554,0.00198
2009.58695,0.00211
2007.65836,0.00219
2005.72978,0.00222
2003.80119,0.00234
2001.87260,0.00241
1999.94402,0.00245
1998.01543,0.00241
1996.08685,0.00235
1994.15826,0.00233
1992.22967,0.00213
1990.30109,0.00198
1988.37250,0.00201
1986.44391,0.00207
1984.51533,0.00204
1982.58674,0.00194
1980.65815,0.00186
1978.72957,0.00177
1976.80098,0.00175
1974.87240,0.00178
1972.94381,0.00177
1971.01522,0.00162
1969.08664,0.00144
1967.15805,0.00126
1965.22946,0.00107
1963.30088,0.00109
1961.37229,0.00106
1959.44371,0.00089
1957.51512,0.00072
1955.58653,0.00056
1953.65795,0.00054
1951.72936,0.00056
1949.80077,0.00050
1947.87219,0.00032
1945.94360,0.00029
1944.01501,0.00023
1942.08643,0.00000
1940.15784,0.00003
1938.22926,0.00012
1936.30067,0.00006
1934.37208,0.00002
1932.44350,0.00001
1930.51491,-0.00007
1928.58632,-0.00013
1926.65774,-0.00001
1924.72915,0.00007
1922.80056,0.00000
1920.87198,0.00010
1918.94339,0.00027
1917.01481,0.00014
1915.08622,0.00036
1913.15763,0.00094
1911.22905,0.00132
1909.30046,0.00156
1907.37187,0.00181
1905.44329,0.00227
1903.51470,0.00279
1901.58612,0.00322
1899.65753,0.00359
1897.72894,0.00399
1895.80036,0.00444
1893.87177,0.00473
1891.94318,0.00517
1890.01460,0.00543
1888.08601,0.00550
1886.15742,0.00594
1884.22884,0.00625
1882.30025,0.00650
1880.37167,0.00666
1878.44308,0.00666
1876.51449,0.00667
1874.58591,0.00668
1872.65732,0.00694
1870.72873,0.00685
1868.80015,0.00623
1866.87156,0.00580
1864.94298,0.00588
1863.01439,0.00581
1861.08580,0.00529
1859.15722,0.00474
1857.22863,0.00416
1855.30004,0.00374
1853.37146,0.00307
1851.44287,0.00251
1849.51428,0.00207
1847.58570,0.00161
1845.65711,0.00135
1843.72853,0.00027
1841.79994,0.00000
1839.87135,0.00036
1837.94277,0.00027
1836.01418,0.00015
1834.08559,-0.00003
1832.15701,0.00012
1830.22842,-0.00025
1828.29984,-0.00044
1826.37125,0.00010
1824.44266,0.00012
1822.51408,0.00047
1820.58549,0.00117
1818.65690,0.00180
1816.72832,0.00230
1814.79973,0.00288
1812.87114,0.00360
1810.94256,0.00422
1809.01397,0.00512
1807.08539,0.00621
1805.15680,0.00739
1803.22821,0.00871
1801.29963,0.01000
1799.37104,0.01130
1797.44245,0.01303
1795.51387,0.01508
1793.58528,0.01675
1791.65669,0.01799
1789.72811,0.02008
1787.79952,0.02294
1785.87094,0.02520
1783.94235,0.02730
1782.01376,0.02948
1780.08518,0.03152
1778.15659,0.03393
1776.22800,0.03625
1774.29942,0.03847
1772.37083,0.03987
1770.44225,0.04147
1768.51366,0.04404
1766.58507,0.04619
1764.65649,0.04881
1762.72790,0.05097
1760.79931,0.05271
1758.87073,0.05557
1756.94214,0.05829
1755.01355,0.06133
1753.08497,0.06480
1751.15638,0.06790
1749.22780,0.07119
1747.29921,0.07533
1745.37062,0.07987
1743.44204,0.08437
1741.51345,0.08881
1739.58486,0.09290
1737.65628,0.09696
1735.72769,0.10082
1733.79911,0.10288
1731.87052,0.10550
1729.94193,0.10932
1728.01335,0.11223
1726.08476,0.11528
1724.15617,0.11809
1722.22759,0.12093
1720.29900,0.12432
1718.37041,0.12660
1716.44183,0.12852
1714.51324,0.13128
1712.58466,0.13476
1710.65607,0.13789
1708.72748,0.14051
1706.79890,0.14305
1704.87031,0.14519
1702.94172,0.14869
1701.01314,0.15146
1699.08455,0.15312
1697.15596,0.15717
1695.22738,0.16024
1693.29879,0.16351
1691.37021,0.16752
1689.44162,0.17027
1687.51303,0.17374
1685.58445,0.17665
1683.65586,0.17765
1681.72727,0.18117
1679.79869,0.18512
1677.87010,0.18858
1675.94152,0.19113
1674.01293,0.19291
1672.08434,0.19579
1670.15576,0.19787
1668.22717,0.19949
1666.29858,0.20198
1664.37000,0.20398
1662.44141,0.20471
1660.51282,0.20557
1658.58424,0.20676
1656.65565,0.20751
1654.72707,0.20809
1652.79848,0.20451
1650.86989,0.20370
1648.94131,0.20592
1647.01272,0.20515
1645.08413,0.20409
1643.15555,0.20462
1641.22696,0.20509
1639.29838,0.20517
1637.36979,0.20506
1635.44120,0.20366
1633.51262,0.20279
1631.58403,0.20377
1629.65544,0.20306
1627.72686,0.20122
1625.79827,0.19948
1623.86968,0.19693
1621.94110,0.19364
1620.01251,0.19165
1618.08393,0.18979
1616.15534,0.18554
1614.22675,0.18354
1612.29817,0.18260
1610.36958,0.18078
1608.44099,0.17902
1606.51241,0.17736
1604.58382,0.17589
1602.65524,0.17395
1600.72665,0.17207
1598.79806,0.17028
1596.86948,0.16877
1594.94089,0.16713
1593.01230,0.16531
1591.08372,0.16375
1589.15513,0.16182
1587.22654,0.16016
1585.29796,0.15832
1583.36937,0.15647
1581.44079,0.15452
1579.51220,0.15307
1577.58361,0.15188
1575.65503,0.14894
1573.72644,0.14809
1571.79785,0.14854
1569.86927,0.14737
1567.94068,0.14652
1566.01209,0.14706
1564.08351,0.14753
1562.15492,0.14868
1560.22634,0.14894
1558.29775,0.14604
1556.36916,0.14730
1554.44058,0.14911
1552.51199,0.14976
1550.58340,0.15068
1548.65482,0.15099
1546.72623,0.15163
1544.79765,0.15141
1542.86906,0.15072
1540.94047,0.15004
1539.01189,0.14759
1537.08330,0.14828
1535.15471,0.14908
1533.22613,0.14771
1531.29754,0.14661
1529.36895,0.14649
1527.44037,0.14564
1525.51178,0.14421
1523.58320,0.14401
1521.65461,0.14317
1519.72602,0.14289
1517.79744,0.14365
1515.86885,0.14322
1513.94026,0.14237
1512.01168,0.14031
1510.08309,0.13761
1508.15451,0.13446
1506.22592,0.12824
1504.29733,0.12457
1502.36875,0.12288
1500.44016,0.11970
1498.51157,0.11559
1496.58299,0.11106
1494.65440,0.10736
1492.72581,0.10519
1490.79723,0.10234
1488.86864,0.09905
1486.94006,0.09720
1485.01147,0.09639
1483.08288,0.09626
1481.15430,0.09646
1479.22571,0.09740
1477.29712,0.09921
1475.36854,0.10169
1473.43995,0.10531
1471.51137,0.11055
1469.58278,0.11698
1467.65419,0.12267
1465.72561,0.12528
1463.79702,0.12587
1461.86843,0.12685
1459.93985,0.12802
1458.01126,0.12815
1456.08267,0.12729
1454.15409,0.12829
1452.22550,0.12919
1450.29692,0.12913
1448.36833,0.12864
1446.43974,0.12796
1444.51116,0.12785
1442.58257,0.12746
1440.65398,0.12714
1438.72540,0.12709
1436.79681,0.12579
1434.86822,0.12491
1432.93964,0.12546
1431.01105,0.12545
1429.08247,0.12481
1427.15388,0.12484
1425.22529,0.12488
1423.29671,0.12477
1421.36812,0.12504
1419.43953,0.12427
1417.51095,0.12321
1415.58236,0.12336
1413.65378,0.12315
1411.72519,0.12242
1409.79660,0.12148
1407.86802,0.12051
1405.93943,0.11947
1404.01084,0.11810
1402.08226,0.11734
1400.15367,0.11639
1398.22508,0.11507
1396.29650,0.11430
1394.36791,0.11344
1392.43933,0.11311
1390.51074,0.11343
1388.58215,0.11293
1386.65357,0.11116
1384.72498,0.11012
1382.79639,0.11125
1380.86781,0.11334
1378.93922,0.11464
1377.01064,0.11500
1375.08205,0.11444
1373.15346,0.11336
1371.22488,0.11271
1369.29629,0.11184
1367.36770,0.11022
1365.43912,0.10875
1363.51053,0.10710
1361.58194,0.10537
1359.65336,0.10440
1357.72477,0.10373
1355.79619,0.10289
1353.86760,0.10218
1351.93901,0.10175
1350.01043,0.10129
1348.08184,0.10076
1346.15325,0.10026
1344.22467,0.09981
1342.29608,0.09943
1340.36750,0.09874
1338.43891,0.09802
1336.51032,0.09786
1334.58174,0.09781
1332.65315,0.09761
1330.72456,0.09746
1328.79598,0.09721
1326.86739,0.09698
1324.93880,0.09682
1323.01022,0.09661
1321.08163,0.09651
1319.15305,0.09634
1317.22446,0.09598
1315.29587,0.09569
1313.36729,0.09549
1311.43870,0.09529
1309.51011,0.09507
1307.58153,0.09483
1305.65294,0.09468
1303.72435,0.09465
1301.79577,0.09476
1299.86718,0.09511
1297.93860,0.09549
1296.01001,0.09589
1294.08142,0.09638
1292.15284,0.09699
1290.22425,0.09798
1288.29566,0.09921
1286.36708,0.10053
1284.43849,0.10204
1282.50991,0.10375
1280.58132,0.10546
1278.65273,0.10712
1276.72415,0.10884
1274.79556,0.11074
1272.86697,0.11290
1270.93839,0.11510
1269.00980,0.11739
1267.08121,0.11986
1265.15263,0.12250
1263.22404,0.12551
1261.29546,0.12893
1259.36687,0.13278
1257.43828,0.13706
1255.50970,0.14186
1253.58111,0.14706
1251.65252,0.15264
1249.72394,0.15830
1247.79535,0.16371
1245.86677,0.16904
1243.93818,0.17403
1242.00959,0.17854
1240.08101,0.18273
1238.15242,0.18670
1236.22383,0.19039
1234.29525,0.19341
1232.36666,0.19619
1230.43807,0.19896
1228.50949,0.20143
1226.58090,0.20365
1224.65232,0.20569
1222.72373,0.20767
1220.79514,0.20940
1218.86656,0.21109
1216.93797,0.21284
1215.00938,0.21421
1213.08080,0.21564
1211.15221,0.21753
1209.22363,0.21931
1207.29504,0.22060
1205.36645,0.22162
1203.43787,0.22254
1201.50928,0.22337
1199.58069,0.22439
1197.65211,0.22569
1195.72352,0.22696
1193.79493,0.22806
1191.86635,0.22908
1189.93776,0.23011
1188.00918,0.23119
1186.08059,0.23245
1184.15200,0.23396
1182.22342,0.23526
1180.29483,0.23661
1178.36624,0.23875
1176.43766,0.24122
1174.50907,0.24340
1172.58048,0.24545
1170.65190,0.24777
1168.72331,0.25034
1166.79473,0.25295
1164.86614,0.25540
1162.93755,0.25721
1161.00897,0.25842
1159.08038,0.25957
1157.15179,0.26072
1155.22321,0.26152
1153.29462,0.26241
1151.36604,0.26355
1149.43745,0.26454
1147.50886,0.26586
1145.58028,0.26772
1143.65169,0.26997
1141.72310,0.27232
1139.79452,0.27449
1137.86593,0.27693
1135.93734,0.27970
1134.00876,0.28271
1132.08017,0.28593
1130.15159,0.28897
1128.22300,0.29205
1126.29441,0.29604
1124.36583,0.30046
1122.43724,0.30464
1120.50865,0.30894
1118.58007,0.31341
1116.65148,0.31821
1114.72290,0.32330
1112.79431,0.32877
1110.86572,0.33472
1108.93714,0.34044
1107.00855,0.34533
1105.07996,0.34949
1103.15138,0.35361
1101.22279,0.35729
1099.29420,0.36020
1097.36562,0.36186
1095.43703,0.36267
1093.50845,0.36346
1091.57986,0.36358
1089.65127,0.36372
1087.72269,0.36331
1085.79410,0.36209
1083.86551,0.36121
1081.93693,0.35985
1080.00834,0.35800
1078.07976,0.35607
1076.15117,0.35428
1074.22258,0.35223
1072.29400,0.34976
1070.36541,0.34754
1068.43682,0.34539
1066.50824,0.34327
1064.57965,0.34158
1062.65106,0.34025
1060.72248,0.33767
1058.79389,0.33384
1056.86531,0.32997
1054.93672,0.32592
1053.00813,0.32243
1051.07955,0.31978
1049.15096,0.31725
1047.22237,0.31484
1045.29379,0.31296
1043.36520,0.31149
1041.43661,0.31032
1039.50803,0.30940
1037.57944,0.30816
1035.65086,0.30709
1033.72227,0.30562
1031.79368,0.30292
1029.86510,0.29982
1027.93651,0.29660
1026.00792,0.29313
1024.07934,0.28906
1022.15075,0.28502
1020.22217,0.28153
1018.29358,0.27797
1016.36499,0.27453
1014.43641,0.27114
1012.50782,0.26751
1010.57923,0.26413
1008.65065,0.26105
1006.72206,0.25737
1004.79347,0.25289
1002.86489,0.24842
1000.93630,0.24389
999.00772,0.23939
997.07913,0.23505
995.15054,0.23043
993.22196,0.22546
991.29337,0.22029
989.36478,0.21536
987.43620,0.21045
985.50761,0.20506
983.57903,0.19939
981.65044,0.19326
979.72185,0.18657
977.79327,0.17951
975.86468,0.17215
973.93609,0.16499
972.00751,0.15824
970.07892,0.15150
968.15033,0.14486
966.22175,0.13868
964.29316,0.13306
962.36458,0.12809
960.43599,0.12349
958.50740,0.11919
956.57882,0.11558
954.65023,0.11266
952.72164,0.11011
950.79306,0.10769
948.86447,0.10546
946.93589,0.10356
945.00730,0.10202
943.07871,0.10050
941.15013,0.09903
939.22154,0.09775
937.29295,0.09626
935.36437,0.09518
933.43578,0.09440
931.50719,0.09282
929.57861,0.09109
927.65002,0.08991
925.72144,0.08901
923.79285,0.08817
921.86426,0.08745
919.93568,0.08690
918.00709,0.08644
916.07850,0.08605
914.14992,0.08508
912.22133,0.08320
910.29274,0.08057
908.36416,0.07718
906.43557,0.07322
904.50699,0.06895
902.57840,0.06464
900.64981,0.06023
898.72123,0.05567
896.79264,0.05148
894.86405,0.04755
892.93547,0.04400
891.00688,0.04125
889.07830,0.03834
887.14971,0.03539
885.22112,0.03281
883.29254,0.02993
881.36395,0.02741
879.43536,0.02511
877.50678,0.02249
875.57819,0.02007
873.64960,0.01753
871.72102,0.01502
869.79243,0.01305
867.86385,0.01108
865.93526,0.00887
864.00667,0.00697
862.07809,0.00554
860.14950,0.00423
858.22091,0.00340
856.29233,0.00310
854.36374,0.00259
852.43516,0.00220
850.50657,0.00263
848.57798,0.00341
846.64940,0.00465
844.72081,0.00676
842.79222,0.00902
840.86364,0.01145
838.93505,0.01454
837.00646,0.01782
835.07788,0.02085
833.14929,0.02388
831.22071,0.02661
829.29212,0.02852
827.36353,0.03033
825.43495,0.03194
823.50636,0.03285
821.57777,0.03372
819.64919,0.03474
817.72060,0.03621
815.79201,0.03802
813.86343,0.03964
811.93484,0.04191
810.00626,0.04531
808.07767,0.04909
806.14908,0.05379
804.22050,0.05912
802.29191,0.06255
800.36332,0.06400
798.43474,0.06399
796.50615,0.06166
794.57757,0.05790
792.64898,0.05435
790.72039,0.05145
788.79181,0.04905
786.86322,0.04758
784.93463,0.04709
783.00605,0.04694
781.07746,0.04651
779.14887,0.04497
777.22029,0.04172
775.29170,0.03733
773.36312,0.03272
771.43453,0.02817
769.50594,0.02445
767.57736,0.02233
765.64877,0.02161
763.72018,0.02118
761.79160,0.02047
759.86301,0.02034
757.93443,0.02045
756.00584,0.02062
754.07725,0.02094
752.14867,0.02037
750.22008,0.01966
748.29149,0.01883
746.36291,0.01734
744.43432,0.01608
742.50573,0.01504
740.57715,0.01352
738.64856,0.01141
736.71998,0.00968
734.79139,0.00882
732.86280,0.00805
730.93422,0.00758
729.00563,0.00799
727.07704,0.00864
725.14846,0.00913
723.21987,0.00968
721.29129,0.00984
719.36270,0.00894
717.43411,0.00722
715.50553,0.00589
713.57694,0.00561
711.64835,0.00573
709.71977,0.00613
707.79118,0.00708
705.86259,0.00868
703.93401,0.01066
702.00542,0.01239
700.07684,0.01485
698.14825,0.01851
696.21966,0.02115
694.29108,0.02085
692.36249,0.01826
690.43390,0.01509
688.50532,0.01281
686.57673,0.01178
684.64814,0.01098
682.71956,0.01013
680.79097,0.00936
678.86239,0.00912
676.93380,0.00959
675.00521,0.00912
673.07663,0.00792
671.14804,0.00730
669.21945,0.00629
667.29087,0.00508
665.36228,0.00556
663.43370,0.00671
661.50511,0.00646
659.57652,0.00551
657.64794,0.00555
655.71935,0.00619
653.79076,0.00681
651.86218,0.00724
649.93359,0.00786
648.00500,0.00853
646.07642,0.00846
644.14783,0.00835
642.21925,0.00866
640.29066,0.00913
638.36207,0.00988
636.43349,0.01050
634.50490,0.01103
632.57631,0.01164
630.64773,0.01184
628.71914,0.01204
626.79056,0.01254
624.86197,0.01327
622.93338,0.01410
621.00480,0.01449
619.07621,0.01488
617.14762,0.01588
615.21904,0.01681
613.29045,0.01684
611.36186,0.01718
609.43328,0.01871
607.50469,0.01981
605.57611,0.02075
603.64752,0.02180
601.71893,0.02262
599.79035,0.02456
597.86176,0.02606
595.93317,0.02678
594.00459,0.02873
592.07600,0.03067
590.14742,0.03237
588.21883,0.03484
586.29024,0.03733
584.36166,0.03985
582.43307,0.04232
580.50448,0.04487
578.57590,0.04814
576.64731,0.05068
574.71872,0.05311
572.79014,0.05668
570.86155,0.05996
568.93297,0.06375
567.00438,0.06823
565.07579,0.07231
563.14721,0.07594
561.21862,0.07866
559.29003,0.08143
557.36145,0.08440
555.43286,0.08715
553.50427,0.09024
551.57569,0.09290
549.64710,0.09594
547.71852,0.09992
545.78993,0.10232
543.86134,0.10391
541.93276,0.10738
540.00417,0.11191
538.07558,0.11673
536.14700,0.12078
534.21841,0.12316
532.28983,0.12539
530.36124,0.12677
528.43265,0.12683
526.50407,0.12657
524.57548,0.12509
522.64689,0.12266
520.71831,0.12013
518.78972,0.11787
516.86113,0.11496
514.93255,0.11143
513.00396,0.10836
511.07538,0.10520
509.14679,0.10369
507.21820,0.10320
505.28962,0.10200
503.36103,0.10333
501.43244,0.10618
499.50386,0.10963
497.57527,0.11612
495.64669,0.12270
493.71810,0.12893
491.78951,0.13659
489.86093,0.14503
487.93234,0.15397
486.00375,0.16251
484.07517,0.17278
482.14658,0.18445
480.21799,0.19327
478.28941,0.19921
476.36082,0.20610
474.43224,0.21072
472.50365,0.20726
470.57506,0.20613
468.64648,0.20809
466.71789,0.20204
464.78930,0.19346
462.86072,0.18560
460.93213,0.17695
459.00355,0.17024
457.07496,0.16407
455.14637,0.15531
453.21779,0.14535
451.28920,0.13515
449.36061,0.12366
447.43203,0.11529
445.50344,0.11132
443.57485,0.10664
441.64627,0.10093
439.71768,0.09818
437.78910,0.09545
435.86051,0.08939
433.93192,0.08523
432.00334,0.07897
430.07475,0.07160
428.14616,0.06955
426.21758,0.07148
424.28899,0.07171
422.36040,0.06223
420.43182,0.05180
418.50323,0.04557
416.57465,0.04337
414.64606,0.03890
412.71747,0.02719
410.78889,0.02035
408.86030,0.01518
406.93171,0.00711
405.00313,0.00025
403.07454,0.00000
401.14596,0.00532
399.21737,0.00000
