3747.24323,0.00007
3745.31464,0.00147
3743.38605,0.00002
3741.45747,0.00000
3739.52888,0.00177
3737.60030,0.00265
3735.67171,0.00286
3733.74312,0.00290
3731.81454,0.00324
3729.88595,0.00361
3727.95736,0.00490
3726.02878,0.00603
3724.10019,0.00663
3722.17161,0.00796
3720.24302,0.00912
3718.31443,0.01093
3716.38585,0.01319
3714.45726,0.01603
3712.52867,0.01892
3710.60009,0.02092
3708.67150,0.02391
3706.74291,0.02714
3704.81433,0.03072
3702.88574,0.03416
3700.95716,0.03656
3699.02857,0.03890
3697.09998,0.04041
3695.17140,0.04128
3693.24281,0.04154
3691.31422,0.04239
3689.38564,0.04343
3687.45705,0.04379
3685.52846,0.04562
3683.59988,0.04838
3681.67129,0.05152
3679.74271,0.05476
3677.81412,0.05875
3675.88553,0.06262
3673.95695,0.06562
3672.02836,0.07046
3670.09977,0.07484
3668.17119,0.07824
3666.24260,0.08273
3664.31402,0.08704
3662.38543,0.09147
3660.45684,0.09570
3658.52826,0.09998
3656.59967,0.10385
3654.67108,0.10675
3652.74250,0.11064
3650.81391,0.11431
3648.88532,0.11666
3646.95674,0.11897
3645.02815,0.12195
3643.09957,0.12516
3641.17098,0.12812
3639.24239,0.13095
3637.31381,0.13370
3635.38522,0.13681
3633.45663,0.13961
3631.52805,0.14264
3629.59946,0.14556
3627.67088,0.14656
3625.74229,0.14781
3623.81370,0.14945
3621.88512,0.15060
3619.95653,0.15079
3618.02794,0.14898
3616.09936,0.14766
3614.17077,0.14704
3612.24218,0.14602
3610.31360,0.14519
3608.38501,0.14422
3606.45643,0.14338
3604.52784,0.14285
3602.59925,0.14230
3600.67067,0.14181
3598.74208,0.14155
3596.81349,0.14137
3594.88491,0.14107
3592.95632,0.14085
3591.02774,0.14098
3589.09915,0.14135
3587.17056,0.14136
3585.24198,0.14133
3583.31339,0.14187
3581.38480,0.14268
3579.45622,0.14350
3577.52763,0.14417
3575.59904,0.14498
3573.67046,0.14601
3571.74187,0.14690
3569.81329,0.14805
3567.88470,0.14914
3565.95611,0.14969
3564.02753,0.15068
3562.09894,0.15211
3560.17035,0.15330
3558.24177,0.15440
3556.31318,0.15554
3554.38459,0.15669
3552.45601,0.15780
3550.52742,0.15893
3548.59884,0.16006
3546.67025,0.16123
3544.74166,0.16246
3542.81308,0.16354
3540.88449,0.16456
3538.95590,0.16564
3537.02732,0.16673
3535.09873,0.16788
3533.17015,0.16902
3531.24156,0.17014
3529.31297,0.17140
3527.38439,0.17265
3525.45580,0.17369
3523.52721,0.17471
3521.59863,0.17584
3519.67004,0.17697
3517.74145,0.17820
3515.81287,0.17938
3513.88428,0.18028
3511.95570,0.18103
3510.02711,0.18183
3508.09852,0.18279
3506.16994,0.18398
3504.24135,0.18522
3502.31276,0.18615
3500.38418,0.18706
3498.45559,0.18810
3496.52701,0.18911
3494.59842,0.19009
3492.66983,0.19104
3490.74125,0.19216
3488.81266,0.19311
3486.88407,0.19387
3484.95549,0.19483
3483.02690,0.19580
3481.09831,0.19673
3479.16973,0.19758
3477.24114,0.19832
3475.31256,0.19919
3473.38397,0.20015
3471.45538,0.20087
3469.52680,0.20149
3467.59821,0.20217
3465.66962,0.20294
3463.74104,0.20397
3461.81245,0.20485
3459.88386,0.20554
3457.95528,0.20620
3456.02669,0.20686
3454.09811,0.20765
3452.16952,0.20840
3450.24093,0.20913
3448.31235,0.20980
3446.38376,0.21039
3444.45517,0.21094
3442.52659,0.21144
3440.59800,0.21206
3438.66942,0.21277
3436.74083,0.21353
3434.81224,0.21414
3432.88366,0.21459
3430.95507,0.21509
3429.02648,0.21563
3427.09790,0.21616
3425.16931,0.21648
3423.24072,0.21695
3421.31214,0.21766
3419.38355,0.21804
3417.45497,0.21833
3415.52638,0.21878
3413.59779,0.21925
3411.66921,0.21974
3409.74062,0.22018
3407.81203,0.22036
3405.88345,0.22054
3403.95486,0.22102
3402.02628,0.22140
3400.09769,0.22152
3398.16910,0.22169
3396.24052,0.22200
3394.31193,0.22236
3392.38334,0.22260
3390.45476,0.22271
3388.52617,0.22296
3386.59758,0.22307
3384.66900,0.22304
3382.74041,0.22326
3380.81183,0.22355
3378.88324,0.22374
3376.95465,0.22378
3375.02607,0.22379
3373.09748,0.22394
3371.16889,0.22416
3369.24031,0.22433
3367.31172,0.22444
3365.38314,0.22458
3363.45455,0.22474
3361.52596,0.22492
3359.59738,0.22496
3357.66879,0.22485
3355.74020,0.22492
3353.81162,0.22505
3351.88303,0.22505
3349.95444,0.22506
3348.02586,0.22519
3346.09727,0.22528
3344.16869,0.22531
3342.24010,0.22537
3340.31151,0.22538
3338.38293,0.22532
3336.45434,0.22519
3334.52575,0.22510
3332.59717,0.22506
3330.66858,0.22506
3328.73999,0.22511
3326.81141,0.22512
3324.88282,0.22504
3322.95424,0.22467
3321.02565,0.22440
3319.09706,0.22448
3317.16848,0.22440
3315.23989,0.22428
3313.31130,0.22426
3311.38272,0.22407
3309.45413,0.22374
3307.52555,0.22350
3305.59696,0.22344
3303.66837,0.22343
3301.73979,0.22327
3299.81120,0.22290
3297.88261,0.22260
3295.95403,0.22237
3294.02544,0.22209
3292.09685,0.22176
3290.16827,0.22127
3288.23968,0.22086
3286.31110,0.22056
3284.38251,0.22019
3282.45392,0.21986
3280.52534,0.21931
3278.59675,0.21851
3276.66816,0.21773
3274.73958,0.21710
3272.81099,0.21666
3270.88241,0.21598
3268.95382,0.21505
3267.02523,0.21419
3265.09665,0.21330
3263.16806,0.21247
3261.23947,0.21176
3259.31089,0.21088
3257.38230,0.20982
3255.45371,0.20888
3253.52513,0.20813
3251.59654,0.20738
3249.66796,0.20644
3247.73937,0.20547
3245.81078,0.20464
3243.88220,0.20382
3241.95361,0.20300
3240.02502,0.20220
3238.09644,0.20146
3236.16785,0.20070
3234.23927,0.19993
3232.31068,0.19919
3230.38209,0.19829
3228.45351,0.19737
3226.52492,0.19658
3224.59633,0.19587
3222.66775,0.19520
3220.73916,0.19449
3218.81057,0.19368
3216.88199,0.19287
3214.95340,0.19205
3213.02482,0.19115
3211.09623,0.19045
3209.16764,0.18979
3207.23906,0.18886
3205.31047,0.18805
3203.38188,0.18740
3201.45330,0.18665
3199.52471,0.18575
3197.59612,0.18485
3195.66754,0.18402
3193.73895,0.18325
3191.81037,0.18254
3189.88178,0.18172
3187.95319,0.18084
3186.02461,0.18000
3184.09602,0.17916
3182.16743,0.17833
3180.23885,0.17749
3178.31026,0.17665
3176.38168,0.17582
3174.45309,0.17493
3172.52450,0.17387
3170.59592,0.17288
3168.66733,0.17219
3166.73874,0.17146
3164.81016,0.17052
3162.88157,0.16955
3160.95298,0.16881
3159.02440,0.16806
3157.09581,0.16716
3155.16723,0.16636
3153.23864,0.16553
3151.31005,0.16481
3149.38147,0.16422
3147.45288,0.16345
3145.52429,0.16271
3143.59571,0.16197
3141.66712,0.16126
3139.73854,0.16067
3137.80995,0.16003
3135.88136,0.15946
3133.95278,0.15879
3132.02419,0.15804
3130.09560,0.15749
3128.16702,0.15693
3126.23843,0.15647
3124.30984,0.15604
3122.38126,0.15548
3120.45267,0.15492
3118.52409,0.15441
3116.59550,0.15398
3114.66691,0.15354
3112.73833,0.15303
3110.80974,0.15257
3108.88115,0.15210
3106.95257,0.15170
3105.02398,0.15142
3103.09540,0.15115
3101.16681,0.15087
3099.23822,0.15052
3097.30964,0.15005
3095.38105,0.14964
3093.45246,0.14929
3091.52388,0.14883
3089.59529,0.14839
3087.66670,0.14806
3085.73812,0.14774
3083.80953,0.14728
3081.88095,0.14678
3079.95236,0.14640
3078.02377,0.14599
3076.09519,0.14554
3074.16660,0.14512
3072.23801,0.14469
3070.30943,0.14415
3068.38084,0.14353
3066.45225,0.14308
3064.52367,0.14264
3062.59508,0.14199
3060.66650,0.14136
3058.73791,0.14080
3056.80932,0.14003
3054.88074,0.13923
3052.95215,0.13849
3051.02356,0.13776
3049.09498,0.13718
3047.16639,0.13659
3045.23781,0.13608
3043.30922,0.13562
3041.38063,0.13504
3039.45205,0.13449
3037.52346,0.13393
3035.59487,0.13344
3033.66629,0.13308
3031.73770,0.13271
3029.80911,0.13233
3027.88053,0.13184
3025.95194,0.13139
3024.02336,0.13106
3022.09477,0.13080
3020.16618,0.13058
3018.23760,0.13037
3016.30901,0.13026
3014.38042,0.13021
3012.45184,0.13039
3010.52325,0.13062
3008.59467,0.13073
3006.66608,0.13100
3004.73749,0.13150
3002.80891,0.13202
3000.88032,0.13244
2998.95173,0.13304
2997.02315,0.13389
2995.09456,0.13483
2993.16597,0.13580
2991.23739,0.13678
2989.30880,0.13795
2987.38022,0.13936
2985.45163,0.14100
2983.52304,0.14284
2981.59446,0.14481
2979.66587,0.14692
2977.73728,0.14911
2975.80870,0.15148
2973.88011,0.15395
2971.95153,0.15653
2970.02294,0.15951
2968.09435,0.16265
2966.16577,0.16568
2964.23718,0.16869
2962.30859,0.17161
2960.38001,0.17427
2958.45142,0.17663
2956.52283,0.17881
2954.59425,0.18084
2952.66566,0.18288
2950.73708,0.18520
2948.80849,0.18761
2946.87990,0.19031
2944.95132,0.19369
2943.02273,0.19778
2941.09414,0.20261
2939.16556,0.20780
2937.23697,0.21325
2935.30838,0.21898
2933.37980,0.22467
2931.45121,0.23015
2929.52263,0.23531
2927.59404,0.23996
2925.66545,0.24365
2923.73687,0.24612
2921.80828,0.24720
2919.87969,0.24625
2917.95111,0.24210
2916.02252,0.23374
2914.09394,0.22269
2912.16535,0.21203
2910.23676,0.20324
2908.30818,0.19635
2906.37959,0.19100
2904.45100,0.18660
2902.52242,0.18273
2900.59383,0.17935
2898.66524,0.17617
2896.73666,0.17292
2894.80807,0.16977
2892.87949,0.16683
2890.95090,0.16408
2889.02231,0.16147
2887.09373,0.15914
2885.16514,0.15704
2883.23655,0.15516
2881.30797,0.15377
2879.37938,0.15295
2877.45080,0.15249
2875.52221,0.15224
2873.59362,0.15237
2871.66504,0.15273
2869.73645,0.15326
2867.80786,0.15421
2865.87928,0.15580
2863.95069,0.15834
2862.02210,0.16198
2860.09352,0.16707
2858.16493,0.17348
2856.23635,0.18033
2854.30776,0.18602
2852.37917,0.18873
2850.45059,0.18671
2848.52200,0.17839
2846.59341,0.16578
2844.66483,0.15315
2842.73624,0.14245
2840.80766,0.13377
2838.87907,0.12678
2836.95048,0.12106
2835.02190,0.11619
2833.09331,0.11214
2831.16472,0.10879
2829.23614,0.10586
2827.30755,0.10327
2825.37896,0.10097
2823.45038,0.09899
2821.52179,0.09719
2819.59321,0.09560
2817.66462,0.09415
2815.73603,0.09269
2813.80745,0.09137
2811.87886,0.09018
2809.95027,0.08911
2808.02169,0.08809
2806.09310,0.08711
2804.16451,0.08622
2802.23593,0.08520
2800.30734,0.08424
2798.37876,0.08344
2796.45017,0.08272
2794.52158,0.08198
2792.59300,0.08119
2790.66441,0.08047
2788.73582,0.07974
2786.80724,0.07901
2784.87865,0.07824
2782.95007,0.07760
2781.02148,0.07709
2779.09289,0.07650
2777.16431,0.07591
2775.23572,0.07540
2773.30713,0.07492
2771.37855,0.07438
2769.44996,0.07386
2767.52137,0.07344
2765.59279,0.07298
2763.66420,0.07250
2761.73562,0.07203
2759.80703,0.07160
2757.87844,0.07121
2755.94986,0.07079
2754.02127,0.07036
2752.09268,0.06999
2750.16410,0.06968
2748.23551,0.06931
2746.30693,0.06900
2744.37834,0.06873
2742.44975,0.06835
2740.52117,0.06803
2738.59258,0.06773
2736.66399,0.06739
2734.73541,0.06705
2732.80682,0.06675
2730.87823,0.06643
2728.94965,0.06600
2727.02106,0.06558
2725.09248,0.06518
2723.16389,0.06476
2721.23530,0.06435
2719.30672,0.06390
2717.37813,0.06350
2715.44954,0.06308
2713.52096,0.06255
2711.59237,0.06206
2709.66379,0.06172
2707.73520,0.06135
2705.80661,0.06093
2703.87803,0.06057
2701.94944,0.06020
2700.02085,0.05984
2698.09227,0.05950
2696.16368,0.05917
2694.23509,0.05889
2692.30651,0.05853
2690.37792,0.05812
2688.44934,0.05781
2686.52075,0.05754
2684.59216,0.05727
2682.66358,0.05699
2680.73499,0.05672
2678.80640,0.05642
2676.87782,0.05605
2674.94923,0.05574
2673.02064,0.05538
2671.09206,0.05490
2669.16347,0.05455
2667.23489,0.05429
2665.30630,0.05394
2663.37771,0.05349
2661.44913,0.05309
2659.52054,0.05287
2657.59195,0.05258
2655.66337,0.05225
2653.73478,0.05194
2651.80620,0.05158
2649.87761,0.05123
2647.94902,0.05084
2646.02044,0.05047
2644.09185,0.05020
2642.16326,0.04996
2640.23468,0.04967
2638.30609,0.04933
2636.37750,0.04908
2634.44892,0.04876
2632.52033,0.04839
2630.59175,0.04812
2628.66316,0.04780
2626.73457,0.04740
2624.80599,0.04709
2622.87740,0.04682
2620.94881,0.04649
2619.02023,0.04614
2617.09164,0.04578
2615.16306,0.04544
2613.23447,0.04509
2611.30588,0.04476
2609.37730,0.04445
2607.44871,0.04413
2605.52012,0.04384
2603.59154,0.04353
2601.66295,0.04323
2599.73436,0.04291
2597.80578,0.04250
2595.87719,0.04224
2593.94861,0.04211
2592.02002,0.04184
2590.09143,0.04145
2588.16285,0.04108
2586.23426,0.04075
2584.30567,0.04048
2582.37709,0.04021
2580.44850,0.03981
2578.51991,0.03950
2576.59133,0.03933
2574.66274,0.03911
2572.73416,0.03886
2570.80557,0.03861
2568.87698,0.03826
2566.94840,0.03788
2565.01981,0.03761
2563.09122,0.03739
2561.16264,0.03718
2559.23405,0.03695
2557.30547,0.03673
2555.37688,0.03651
2553.44829,0.03615
2551.51971,0.03581
2549.59112,0.03559
2547.66253,0.03536
2545.73395,0.03514
2543.80536,0.03494
2541.87677,0.03471
2539.94819,0.03449
2538.01960,0.03433
2536.09102,0.03414
2534.16243,0.03391
2532.23384,0.03370
2530.30526,0.03346
2528.37667,0.03319
2526.44808,0.03291
2524.51950,0.03270
2522.59091,0.03250
2520.66233,0.03224
2518.73374,0.03192
2516.80515,0.03162
2514.87657,0.03145
2512.94798,0.03131
2511.01939,0.03107
2509.09081,0.03072
2507.16222,0.03039
2505.23363,0.03012
2503.30505,0.02986
2501.37646,0.02965
2499.44788,0.02942
2497.51929,0.02919
2495.59070,0.02887
2493.66212,0.02847
2491.73353,0.02818
2489.80494,0.02785
2487.87636,0.02757
2485.94777,0.02739
2484.01919,0.02709
2482.09060,0.02680
2480.16201,0.02656
2478.23343,0.02630
2476.30484,0.02600
2474.37625,0.02566
2472.44767,0.02535
2470.51908,0.02510
2468.59049,0.02480
2466.66191,0.02450
2464.73332,0.02422
2462.80474,0.02387
2460.87615,0.02350
2458.94756,0.02320
2457.01898,0.02296
2455.09039,0.02273
2453.16180,0.02248
2451.23322,0.02221
2449.30463,0.02197
2447.37604,0.02176
2445.44746,0.02141
2443.51887,0.02102
2441.59029,0.02073
2439.66170,0.02042
2437.73311,0.02008
2435.80453,0.01978
2433.87594,0.01953
2431.94735,0.01922
2430.01877,0.01891
2428.09018,0.01862
2426.16160,0.01829
2424.23301,0.01804
2422.30442,0.01784
2420.37584,0.01752
2418.44725,0.01719
2416.51866,0.01696
2414.59008,0.01672
2412.66149,0.01646
2410.73290,0.01624
2408.80432,0.01596
2406.87573,0.01567
2404.94715,0.01541
2403.01856,0.01511
2401.08997,0.01487
2399.16139,0.01458
2397.23280,0.01429
2395.30421,0.01406
2393.37563,0.01387
2391.44704,0.01366
2389.51846,0.01335
2387.58987,0.01303
2385.66128,0.01285
2383.73270,0.01267
2381.80411,0.01241
2379.87552,0.01224
2377.94694,0.01217
2376.01835,0.01198
2374.08976,0.01166
2372.16118,0.01143
2370.23259,0.01126
2368.30401,0.01105
2366.37542,0.01084
2364.44683,0.01057
2362.51825,0.01024
2360.58966,0.00998
2358.66107,0.00978
2356.73249,0.00950
2354.80390,0.00924
2352.87532,0.00906
2350.94673,0.00892
2349.01814,0.00896
2347.08956,0.00902
2345.16097,0.00896
2343.23238,0.00884
2341.30380,0.00876
2339.37521,0.00869
2337.44662,0.00847
2335.51804,0.00815
2333.58945,0.00789
2331.66087,0.00772
2329.73228,0.00757
2327.80369,0.00739
2325.87511,0.00722
2323.94652,0.00709
2322.01793,0.00690
2320.08935,0.00670
2318.16076,0.00657
2316.23217,0.00645
2314.30359,0.00631
2312.37500,0.00623
2310.44642,0.00616
2308.51783,0.00603
2306.58924,0.00588
2304.66066,0.00574
2302.73207,0.00565
2300.80348,0.00552
2298.87490,0.00539
2296.94631,0.00535
2295.01773,0.00529
2293.08914,0.00516
2291.16055,0.00500
2289.23197,0.00489
2287.30338,0.00481
2285.37479,0.00465
2283.44621,0.00453
2281.51762,0.00446
2279.58903,0.00436
2277.66045,0.00427
2275.73186,0.00409
2273.80328,0.00394
2271.87469,0.00388
2269.94610,0.00381
2268.01752,0.00377
2266.08893,0.00371
2264.16034,0.00359
2262.23176,0.00351
2260.30317,0.00347
2258.37459,0.00342
2256.44600,0.00332
2254.51741,0.00322
2252.58883,0.00309
2250.66024,0.00295
2248.73165,0.00288
2246.80307,0.00283
2244.87448,0.00281
2242.94589,0.00274
2241.01731,0.00263
2239.08872,0.00259
2237.16014,0.00255
2235.23155,0.00241
2233.30296,0.00227
2231.37438,0.00225
2229.44579,0.00215
2227.51720,0.00199
2225.58862,0.00190
2223.66003,0.00176
2221.73145,0.00168
2219.80286,0.00167
2217.87427,0.00162
2215.94569,0.00150
2214.01710,0.00135
2212.08851,0.00124
2210.15993,0.00115
2208.23134,0.00104
2206.30275,0.00096
2204.37417,0.00088
2202.44558,0.00084
2200.51700,0.00085
2198.58841,0.00078
2196.65982,0.00067
2194.73124,0.00064
2192.80265,0.00071
2190.87406,0.00073
2188.94548,0.00069
2187.01689,0.00068
2185.08830,0.00063
2183.15972,0.00056
2181.23113,0.00048
2179.30255,0.00034
2177.37396,0.00030
2175.44537,0.00035
2173.51679,0.00040
2171.58820,0.00029
2169.65961,0.00008
2167.73103,0.00012
2165.80244,0.00029
2163.87386,0.00030
2161.94527,0.00023
2160.01668,0.00021
2158.08810,0.00029
2156.15951,0.00030
2154.23092,0.00024
2152.30234,0.00029
2150.37375,0.00037
2148.44516,0.00037
2146.51658,0.00035
2144.58799,0.00034
2142.65941,0.00032
2140.73082,0.00029
2138.80223,0.00030
2136.87365,0.00033
2134.94506,0.00031
2133.01647,0.00024
2131.08789,0.00019
2129.15930,0.00016
2127.23072,0.00014
2125.30213,0.00016
2123.37354,0.00018
2121.44496,0.00017
2119.51637,0.00008
2117.58778,0.00006
2115.65920,0.00009
2113.73061,0.00006
2111.80202,0.00000
2109.87344,-0.00000
2107.94485,0.00007
2106.01627,0.00004
2104.08768,-0.00000
2102.15909,0.00007
2100.23051,0.00006
2098.30192,0.00004
2096.37333,0.00005
2094.44475,0.00002
2092.51616,-0.00001
2090.58758,0.00004
2088.65899,0.00009
2086.73040,0.00002
2084.80182,-0.00003
2082.87323,-0.00003
2080.94464,0.00000
2079.01606,-0.00002
2077.08747,-0.00003
2075.15888,-0.00001
2073.23030,-0.00007
2071.30171,-0.00007
2069.37313,-0.00000
2067.44454,-0.00000
2065.51595,0.00002
2063.58737,0.00007
2061.65878,0.00007
2059.73019,0.00006
2057.80161,0.00008
2055.87302,0.00010
2053.94443,0.00019
2052.01585,0.00030
2050.08726,0.00038
2048.15868,0.00052
2046.23009,0.00064
2044.30150,0.00080
2042.37292,0.00100
2040.44433,0.00119
2038.51574,0.00140
2036.58716,0.00163
2034.65857,0.00185
2032.72999,0.00200
2030.80140,0.00218
2028.87281,0.00234
2026.94423,0.00237
2025.01564,0.00246
2023.08705,0.00248
2021.15847,0.00244
2019.22988,0.00252
2017.30129,0.00259
2015.37271,0.00267
2013.44412,0.00290
2011.51554,0.00312
2009.58695,0.00330
2007.65836,0.00350
2005.72978,0.00370
2003.80119,0.00380
2001.87260,0.00382
1999.94402,0.00383
1998.01543,0.00383
1996.08685,0.00385
1994.15826,0.00382
1992.22967,0.00369
1990.30109,0.00359
1988.37250,0.00352
1986.44391,0.00341
1984.51533,0.00324
1982.58674,0.00318
1980.65815,0.00317
1978.72957,0.00299
1976.80098,0.00285
1974.87240,0.00281
1972.94381,0.00269
1971.01522,0.00251
1969.08664,0.00236
1967.15805,0.00212
1965.22946,0.00183
1963.30088,0.00165
1961.37229,0.00149
1959.44371,0.00130
1957.51512,0.00119
1955.58653,0.00108
1953.65795,0.00095
1951.72936,0.00085
1949.80077,0.00079
1947.87219,0.00071
1945.94360,0.00063
1944.01501,0.00056
1942.08643,0.00045
1940.15784,0.00032
1938.22926,0.00019
1936.30067,0.00006
1934.37208,0.00000
1932.44350,-0.00003
1930.51491,-0.00007
1928.58632,-0.00012
1926.65774,-0.00012
1924.72915,0.00000
1922.80056,0.00002
1920.87198,0.00011
1918.94339,0.00022
1917.01481,0.00018
1915.08622,0.00043
1913.15763,0.00091
1911.22905,0.00135
1909.30046,0.00179
1907.37187,0.00222
1905.44329,0.00275
1903.51470,0.00327
1901.58612,0.00378
1899.65753,0.00430
1897.72894,0.00481
1895.80036,0.00534
1893.87177,0.00579
1891.94318,0.00628
1890.01460,0.00671
1888.08601,0.00692
1886.15742,0.00722
1884.22884,0.00752
1882.30025,0.00774
1880.37167,0.00794
1878.44308,0.00806
1876.51449,0.00813
1874.58591,0.00817
1872.65732,0.00825
1870.72873,0.00831
1868.80015,0.00813
1866.87156,0.00773
1864.94298,0.00738
1863.01439,0.00699
1861.08580,0.00646
1859.15722,0.00573
1857.22863,0.00486
1855.30004,0.00414
1853.37146,0.00344
1851.44287,0.00275
1849.51428,0.00206
1847.58570,0.00146
1845.65711,0.00108
1843.72853,0.00043
1841.79994,0.00000
1839.87135,-0.00014
1837.94277,-0.00037
1836.01418,-0.00054
1834.08559,-0.00059
1832.15701,-0.00044
1830.22842,-0.00035
1828.29984,-0.00029
1826.37125,0.00005
1824.44266,0.00030
1822.51408,0.00066
1820.58549,0.00127
1818.65690,0.00186
1816.72832,0.00245
1814.79973,0.00314
1812.87114,0.00400
1810.94256,0.00498
1809.01397,0.00599
1807.08539,0.00715
1805.15680,0.00850
1803.22821,0.00996
1801.29963,0.01149
1799.37104,0.01310
1797.44245,0.01480
1795.51387,0.01677
1793.58528,0.01889
1791.65669,0.02076
1789.72811,0.02267
1787.79952,0.02508
1785.87094,0.02751
1783.94235,0.02977
1782.01376,0.03207
1780.08518,0.03438
1778.15659,0.03666
1776.22800,0.03886
1774.29942,0.04113
1772.37083,0.04300
1770.44225,0.04471
1768.51366,0.04672
1766.58507,0.04853
1764.65649,0.05068
1762.72790,0.05292
1760.79931,0.05485
1758.87073,0.05736
1756.94214,0.06002
1755.01355,0.06276
1753.08497,0.06602
1751.15638,0.06934
1749.22780,0.07287
1747.29921,0.07701
1745.37062,0.08147
1743.44204,0.08614
1741.51345,0.09094
1739.58486,0.09546
1737.65628,0.09992
1735.72769,0.10430
1733.79911,0.10754
1731.87052,0.11029
1729.94193,0.11343
1728.01335,0.11616
1726.08476,0.11899
1724.15617,0.12197
1722.22759,0.12486
1720.29900,0.12817
1718.37041,0.13111
1716.44183,0.13352
1714.51324,0.13605
1712.58466,0.13864
1710.65607,0.14096
1708.72748,0.14302
1706.79890,0.14504
1704.87031,0.14684
1702.94172,0.14921
1701.01314,0.15151
1699.08455,0.15310
1697.15596,0.15569
1695.22738,0.15792
1693.29879,0.16001
1691.37021,0.16297
1689.44162,0.16527
1687.51303,0.16802
1685.58445,0.17104
1683.65586,0.17300
1681.72727,0.17549
1679.79869,0.17842
1677.87010,0.18141
1675.94152,0.18397
1674.01293,0.18591
1672.08434,0.18835
1670.15576,0.19055
1668.22717,0.19206
1666.29858,0.19373
1664.37000,0.19561
1662.44141,0.19675
1660.51282,0.19751
1658.58424,0.19842
1656.65565,0.19929
1654.72707,0.20019
1652.79848,0.19931
1650.86989,0.19834
1648.94131,0.19908
1647.01272,0.19916
1645.08413,0.19851
1643.15555,0.19834
1641.22696,0.19846
1639.29838,0.19853
1637.36979,0.19884
1635.44120,0.19855
1633.51262,0.19782
1631.58403,0.19777
1629.65544,0.19714
1627.72686,0.19596
1625.79827,0.19460
1623.86968,0.19281
1621.94110,0.19066
1620.01251,0.18894
1618.08393,0.18754
1616.15534,0.18504
1614.22675,0.18300
1612.29817,0.18156
1610.36958,0.17979
1608.44099,0.17822
1606.51241,0.17684
1604.58382,0.17554
1602.65524,0.17408
1600.72665,0.17272
1598.79806,0.17135
1596.86948,0.16992
1594.94089,0.16836
1593.01230,0.16652
1591.08372,0.16473
1589.15513,0.16275
1587.22654,0.16075
1585.29796,0.15864
1583.36937,0.15657
1581.44079,0.15457
1579.51220,0.15279
1577.58361,0.15129
1575.65503,0.14901
1573.72644,0.14717
1571.79785,0.14643
1569.86927,0.14536
1567.94068,0.14419
1566.01209,0.14368
1564.08351,0.14337
1562.15492,0.14361
1560.22634,0.14376
1558.29775,0.14252
1556.36916,0.14227
1554.44058,0.14275
1552.51199,0.14262
1550.58340,0.14259
1548.65482,0.14231
1546.72623,0.14221
1544.79765,0.14196
1542.86906,0.14153
1540.94047,0.14107
1539.01189,0.13946
1537.08330,0.13843
1535.15471,0.13803
1533.22613,0.13692
1531.29754,0.13561
1529.36895,0.13466
1527.44037,0.13366
1525.51178,0.13246
1523.58320,0.13185
1521.65461,0.13132
1519.72602,0.13072
1517.79744,0.13055
1515.86885,0.12978
1513.94026,0.12829
1512.01168,0.12635
1510.08309,0.12422
1508.15451,0.12190
1506.22592,0.11813
1504.29733,0.11417
1502.36875,0.11109
1500.44016,0.10775
1498.51157,0.10425
1496.58299,0.10056
1494.65440,0.09710
1492.72581,0.09467
1490.79723,0.09247
1488.86864,0.09034
1486.94006,0.08877
1485.01147,0.08790
1483.08288,0.08783
1481.15430,0.08838
1479.22571,0.08981
1477.29712,0.09221
1475.36854,0.09571
1473.43995,0.10065
1471.51137,0.10669
1469.58278,0.11315
1467.65419,0.11873
1465.72561,0.12195
1463.79702,0.12327
1461.86843,0.12405
1459.93985,0.12505
1458.01126,0.12589
1456.08267,0.12594
1454.15409,0.12593
1452.22550,0.12588
1450.29692,0.12549
1448.36833,0.12492
1446.43974,0.12413
1444.51116,0.12355
1442.58257,0.12325
1440.65398,0.12312
1438.72540,0.12326
1436.79681,0.12297
1434.86822,0.12253
1432.93964,0.12271
1431.01105,0.12287
1429.08247,0.12278
1427.15388,0.12292
1425.22529,0.12322
1423.29671,0.12350
1421.36812,0.12394
1419.43953,0.12416
1417.51095,0.12378
1415.58236,0.12351
1413.65378,0.12321
1411.72519,0.12262
1409.79660,0.12192
1407.86802,0.12128
1405.93943,0.12079
1404.01084,0.11992
1402.08226,0.11900
1400.15367,0.11815
1398.22508,0.11708
1396.29650,0.11614
1394.36791,0.11520
1392.43933,0.11448
1390.51074,0.11435
1388.58215,0.11429
1386.65357,0.11383
1384.72498,0.11351
1382.79639,0.11410
1380.86781,0.11521
1378.93922,0.11606
1377.01064,0.11616
1375.08205,0.11546
1373.15346,0.11418
1371.22488,0.11258
1369.29629,0.11105
1367.36770,0.10962
1365.43912,0.10829
1363.51053,0.10694
1361.58194,0.10560
1359.65336,0.10444
1357.72477,0.10346
1355.79619,0.10251
1353.86760,0.10143
1351.93901,0.10046
1350.01043,0.09966
1348.08184,0.09882
1346.15325,0.09805
1344.22467,0.09749
1342.29608,0.09704
1340.36750,0.09650
1338.43891,0.09587
1336.51032,0.09528
1334.58174,0.09477
1332.65315,0.09438
1330.72456,0.09403
1328.79598,0.09366
1326.86739,0.09331
1324.93880,0.09297
1323.01022,0.09262
1321.08163,0.09225
1319.15305,0.09194
1317.22446,0.09161
1315.29587,0.09125
1313.36729,0.09091
1311.43870,0.09051
1309.51011,0.09012
1307.58153,0.08979
1305.65294,0.08951
1303.72435,0.08931
1301.79577,0.08921
1299.86718,0.08927
1297.93860,0.08935
1296.01001,0.08958
1294.08142,0.09007
1292.15284,0.09065
1290.22425,0.09149
1288.29566,0.09261
1286.36708,0.09393
1284.43849,0.09541
1282.50991,0.09694
1280.58132,0.09852
1278.65273,0.09999
1276.72415,0.10152
1274.79556,0.10331
1272.86697,0.10512
1270.93839,0.10699
1269.00980,0.10891
1267.08121,0.11071
1265.15263,0.11260
1263.22404,0.11480
1261.29546,0.11714
1259.36687,0.11982
1257.43828,0.12318
1255.50970,0.12704
1253.58111,0.13120
1251.65252,0.13558
1249.72394,0.14010
1247.79535,0.14465
1245.86677,0.14922
1243.93818,0.15359
1242.00959,0.15755
1240.08101,0.16120
1238.15242,0.16449
1236.22383,0.16749
1234.29525,0.17041
1232.36666,0.17317
1230.43807,0.17567
1228.50949,0.17785
1226.58090,0.17996
1224.65232,0.18210
1222.72373,0.18416
1220.79514,0.18604
1218.86656,0.18769
1216.93797,0.18953
1215.00938,0.19163
1213.08080,0.19352
1211.15221,0.19532
1209.22363,0.19712
1207.29504,0.19886
1205.36645,0.20068
1203.43787,0.20258
1201.50928,0.20429
1199.58069,0.20557
1197.65211,0.20683
1195.72352,0.20834
1193.79493,0.20981
1191.86635,0.21118
1189.93776,0.21251
1188.00918,0.21390
1186.08059,0.21533
1184.15200,0.21678
1182.22342,0.21847
1180.29483,0.22064
1178.36624,0.22310
1176.43766,0.22543
1174.50907,0.22799
1172.58048,0.23101
1170.65190,0.23370
1168.72331,0.23626
1166.79473,0.23923
1164.86614,0.24209
1162.93755,0.24462
1161.00897,0.24652
1159.08038,0.24750
1157.15179,0.24824
1155.22321,0.24916
1153.29462,0.25041
1151.36604,0.25193
1149.43745,0.25345
1147.50886,0.25526
1145.58028,0.25738
1143.65169,0.25989
1141.72310,0.26280
1139.79452,0.26585
1137.86593,0.26913
1135.93734,0.27279
1134.00876,0.27679
1132.08017,0.28062
1130.15159,0.28442
1128.22300,0.28905
1126.29441,0.29432
1124.36583,0.29946
1122.43724,0.30454
1120.50865,0.31007
1118.58007,0.31570
1116.65148,0.32130
1114.72290,0.32694
1112.79431,0.33271
1110.86572,0.33876
1108.93714,0.34421
1107.00855,0.34879
1105.07996,0.35276
1103.15138,0.35618
1101.22279,0.35895
1099.29420,0.36071
1097.36562,0.36194
1095.43703,0.36262
1093.50845,0.36239
1091.57986,0.36193
1089.65127,0.36154
1087.72269,0.36087
1085.79410,0.35981
1083.86551,0.35850
1081.93693,0.35719
1080.00834,0.35594
1078.07976,0.35443
1076.15117,0.35299
1074.22258,0.35170
1072.29400,0.35012
1070.36541,0.34891
1068.43682,0.34829
1066.50824,0.34744
1064.57965,0.34649
1062.65106,0.34585
1060.72248,0.34462
1058.79389,0.34293
1056.86531,0.34150
1054.93672,0.33976
1053.00813,0.33786
1051.07955,0.33671
1049.15096,0.33629
1047.22237,0.33670
1045.29379,0.33793
1043.36520,0.33929
1041.43661,0.34098
1039.50803,0.34280
1037.57944,0.34382
1035.65086,0.34455
1033.72227,0.34513
1031.79368,0.34473
1029.86510,0.34295
1027.93651,0.34047
1026.00792,0.33774
1024.07934,0.33448
1022.15075,0.33131
1020.22217,0.32831
1018.29358,0.32533
1016.36499,0.32227
1014.43641,0.31879
1012.50782,0.31555
1010.57923,0.31249
1008.65065,0.30926
1006.72206,0.30568
1004.79347,0.30127
1002.86489,0.29650
1000.93630,0.29164
999.00772,0.28633
997.07913,0.28078
995.15054,0.27556
993.22196,0.27050
991.29337,0.26482
989.36478,0.25837
987.43620,0.25169
985.50761,0.24485
983.57903,0.23727
981.65044,0.22899
979.72185,0.22060
977.79327,0.21213
975.86468,0.20316
973.93609,0.19382
972.00751,0.18465
970.07892,0.17584
968.15033,0.16740
966.22175,0.15932
964.29316,0.15175
962.36458,0.14474
960.43599,0.13866
958.50740,0.13359
956.57882,0.12886
954.65023,0.12453
952.72164,0.12064
950.79306,0.11711
948.86447,0.11439
946.93589,0.11218
945.00730,0.11011
943.07871,0.10852
941.15013,0.10724
939.22154,0.10566
937.29295,0.10407
935.36437,0.10272
933.43578,0.10154
931.50719,0.10037
929.57861,0.09887
927.65002,0.09761
925.72144,0.09680
923.79285,0.09611
921.86426,0.09570
919.93568,0.09540
918.00709,0.09529
916.07850,0.09494
914.14992,0.09374
912.22133,0.09207
910.29274,0.08955
908.36416,0.08565
906.43557,0.08078
904.50699,0.07534
902.57840,0.06955
900.64981,0.06419
898.72123,0.05940
896.79264,0.05451
894.86405,0.05003
892.93547,0.04628
891.00688,0.04275
889.07830,0.03942
887.14971,0.03622
885.22112,0.03321
883.29254,0.03042
881.36395,0.02762
879.43536,0.02509
877.50678,0.02260
875.57819,0.01976
873.64960,0.01704
871.72102,0.01447
869.79243,0.01190
867.86385,0.00943
865.93526,0.00692
864.00667,0.00487
862.07809,0.00329
860.14950,0.00184
858.22091,0.00106
856.29233,0.00065
854.36374,0.00000
852.43516,-0.00006
850.50657,0.00076
848.57798,0.00166
846.64940,0.00268
844.72081,0.00403
842.79222,0.00603
840.86364,0.00898
838.93505,0.01215
837.00646,0.01540
835.07788,0.01885
833.14929,0.02170
831.22071,0.02371
829.29212,0.02522
827.36353,0.02637
825.43495,0.02726
823.50636,0.02785
821.57777,0.02839
819.64919,0.02934
817.72060,0.03062
815.79201,0.03233
813.86343,0.03471
811.93484,0.03716
810.00626,0.04043
808.07767,0.04599
806.14908,0.05271
804.22050,0.05896
802.29191,0.06386
800.36332,0.06626
798.43474,0.06571
796.50615,0.06247
794.57757,0.05777
792.64898,0.05318
790.72039,0.04929
788.79181,0.04662
786.86322,0.04544
784.93463,0.04554
783.00605,0.04670
781.07746,0.04773
779.14887,0.04648
777.22029,0.04219
775.29170,0.03685
773.36312,0.03189
771.43453,0.02741
769.50594,0.02435
767.57736,0.02258
765.64877,0.02141
763.72018,0.02116
761.79160,0.02124
759.86301,0.02137
757.93443,0.02161
756.00584,0.02145
754.07725,0.02087
752.14867,0.02014
750.22008,0.01943
748.29149,0.01839
746.36291,0.01678
744.43432,0.01508
742.50573,0.01338
740.57715,0.01109
738.64856,0.00812
736.71998,0.00595
734.79139,0.00533
732.86280,0.00492
730.93422,0.00404
729.00563,0.00367
727.07704,0.00416
725.14846,0.00458
723.21987,0.00472
721.29129,0.00492
719.36270,0.00465
717.43411,0.00336
715.50553,0.00179
713.57694,0.00103
711.64835,0.00103
709.71977,0.00164
707.79118,0.00275
705.86259,0.00461
703.93401,0.00711
702.00542,0.01017
700.07684,0.01432
698.14825,0.01829
696.21966,0.02079
694.29108,0.02043
692.36249,0.01731
690.43390,0.01403
688.50532,0.01107
686.57673,0.00878
684.64814,0.00778
682.71956,0.00707
680.79097,0.00602
678.86239,0.00489
676.93380,0.00446
675.00521,0.00416
673.07663,0.00309
671.14804,0.00208
669.21945,0.00171
667.29087,0.00143
665.36228,0.00101
663.43370,0.00048
661.50511,0.00000
659.57652,0.00010
657.64794,0.00031
655.71935,0.00049
653.79076,0.00197
651.86218,0.00361
649.93359,0.00364
648.00500,0.00363
646.07642,0.00455
644.14783,0.00433
642.21925,0.00395
640.29066,0.00489
638.36207,0.00464
636.43349,0.00425
634.50490,0.00539
632.57631,0.00618
630.64773,0.00698
628.71914,0.00798
626.79056,0.00806
624.86197,0.00830
622.93338,0.00920
621.00480,0.01025
619.07621,0.01158
617.14762,0.01223
615.21904,0.01274
613.29045,0.01381
611.36186,0.01386
609.43328,0.01441
607.50469,0.01648
605.57611,0.01814
603.64752,0.01909
601.71893,0.01931
599.79035,0.02001
597.86176,0.02268
595.93317,0.02618
594.00459,0.02903
592.07600,0.03128
590.14742,0.03373
588.21883,0.03672
586.29024,0.04003
584.36166,0.04272
582.43307,0.04547
580.50448,0.04950
578.57590,0.05391
576.64731,0.05768
574.71872,0.06105
572.79014,0.06588
570.86155,0.07091
568.93297,0.07419
567.00438,0.07732
565.07579,0.08245
563.14721,0.08968
561.21862,0.09427
559.29003,0.09717
557.36145,0.10215
555.43286,0.10550
553.50427,0.10801
551.57569,0.11271
549.64710,0.11807
547.71852,0.12254
545.78993,0.12667
543.86134,0.13151
541.93276,0.13576
540.00417,0.13862
538.07558,0.14184
536.14700,0.14728
534.21841,0.15247
532.28983,0.15464
530.36124,0.15396
528.43265,0.15252
526.50407,0.15315
524.57548,0.15321
522.64689,0.15101
520.71831,0.14699
518.78972,0.14201
516.86113,0.13802
514.93255,0.13404
513.00396,0.13025
511.07538,0.12503
509.14679,0.11909
507.21820,0.11652
505.28962,0.11671
503.36103,0.11787
501.43244,0.11895
499.50386,0.12257
497.57527,0.12908
495.64669,0.13512
493.71810,0.14234
491.78951,0.15122
489.86093,0.16033
487.93234,0.17007
486.00375,0.18042
484.07517,0.19188
482.14658,0.20376
480.21799,0.21250
478.28941,0.22000
476.36082,0.22792
474.43224,0.23132
472.50365,0.23127
470.57506,0.23004
468.64648,0.22575
466.71789,0.21785
464.78930,0.20725
462.86072,0.19569
460.93213,0.18500
459.00355,0.17344
457.07496,0.15884
455.14637,0.14396
453.21779,0.13480
451.28920,0.12799
449.36061,0.11630
447.43203,0.10813
445.50344,0.10579
443.57485,0.10323
441.64627,0.09854
439.71768,0.09245
437.78910,0.08865
435.86051,0.08381
433.93192,0.07949
432.00334,0.07633
430.07475,0.07368
428.14616,0.07143
426.21758,0.06459
424.28899,0.06075
422.36040,0.05779
420.43182,0.05278
418.50323,0.05157
416.57465,0.04826
414.64606,0.03922
412.71747,0.02970
410.78889,0.02169
408.86030,0.01346
406.93171,0.00938
405.00313,0.00095
403.07454,0.00000
401.14596,0.00772
399.21737,0.00000
