3747.24323,0.00153
3745.31464,0.00645
3743.38605,0.00081
3741.45747,0.00000
3739.52888,0.00540
3737.60030,0.00775
3735.67171,0.00748
3733.74312,0.00617
3731.81454,0.00550
3729.88595,0.00550
3727.95736,0.00828
3726.02878,0.01015
3724.10019,0.01022
3722.17161,0.01215
3720.24302,0.01257
3718.31443,0.01456
3716.38585,0.01739
3714.45726,0.02181
3712.52867,0.02646
3710.60009,0.02595
3708.67150,0.02766
3706.74291,0.03025
3704.81433,0.03493
3702.88574,0.04000
3700.95716,0.04070
3699.02857,0.04317
3697.09998,0.04543
3695.17140,0.04670
3693.24281,0.04807
3691.31422,0.05062
3689.38564,0.05154
3687.45705,0.04844
3685.52846,0.05017
3683.59988,0.05499
3681.67129,0.05955
3679.74271,0.06262
3677.81412,0.06817
3675.88553,0.07212
3673.95695,0.07007
3672.02836,0.07684
3670.09977,0.08212
3668.17119,0.08179
3666.24260,0.08681
3664.31402,0.09201
3662.38543,0.09632
3660.45684,0.09948
3658.52826,0.10416
3656.59967,0.10800
3654.67108,0.10881
3652.74250,0.11485
3650.81391,0.12037
3648.88532,0.11927
3646.95674,0.11757
3645.02815,0.12014
3643.09957,0.12481
3641.17098,0.12827
3639.24239,0.13095
3637.31381,0.13324
3635.38522,0.13613
3633.45663,0.13852
3631.52805,0.14277
3629.59946,0.14588
3627.67088,0.14146
3625.74229,0.14233
3623.81370,0.14667
3621.88512,0.14947
3619.95653,0.15072
3618.02794,0.14718
3616.09936,0.14616
3614.17077,0.14712
3612.24218,0.14624
3610.31360,0.14653
3608.38501,0.14592
3606.45643,0.14430
3604.52784,0.14470
3602.59925,0.14585
3600.67067,0.14581
3598.74208,0.14580
3596.81349,0.14645
3594.88491,0.14660
3592.95632,0.14627
3591.02774,0.14804
3589.09915,0.15066
3587.17056,0.14934
3585.24198,0.14796
3583.31339,0.14921
3581.38480,0.15015
3579.45622,0.15132
3577.52763,0.15291
3575.59904,0.15437
3573.67046,0.15543
3571.74187,0.15688
3569.81329,0.15950
3567.88470,0.16060
3565.95611,0.15946
3564.02753,0.16027
3562.09894,0.16290
3560.17035,0.16461
3558.24177,0.16595
3556.31318,0.16749
3554.38459,0.16904
3552.45601,0.16999
3550.52742,0.17039
3548.59884,0.17231
3546.67025,0.17441
3544.74166,0.17510
3542.81308,0.17581
3540.88449,0.17721
3538.95590,0.17885
3537.02732,0.17986
3535.09873,0.18070
3533.17015,0.18237
3531.24156,0.18432
3529.31297,0.18562
3527.38439,0.18651
3525.45580,0.18757
3523.52721,0.18864
3521.59863,0.18988
3519.67004,0.19142
3517.74145,0.19280
3515.81287,0.19406
3513.88428,0.19533
3511.95570,0.19618
3510.02711,0.19716
3508.09852,0.19807
3506.16994,0.19899
3504.24135,0.20094
3502.31276,0.20236
3500.38418,0.20319
3498.45559,0.20409
3496.52701,0.20449
3494.59842,0.20515
3492.66983,0.20622
3490.74125,0.20774
3488.81266,0.20915
3486.88407,0.20994
3484.95549,0.21073
3483.02690,0.21163
3481.09831,0.21214
3479.16973,0.21260
3477.24114,0.21378
3475.31256,0.21461
3473.38397,0.21540
3471.45538,0.21656
3469.52680,0.21715
3467.59821,0.21776
3465.66962,0.21822
3463.74104,0.21891
3461.81245,0.22000
3459.88386,0.22081
3457.95528,0.22144
3456.02669,0.22191
3454.09811,0.22274
3452.16952,0.22373
3450.24093,0.22480
3448.31235,0.22584
3446.38376,0.22600
3444.45517,0.22585
3442.52659,0.22592
3440.59800,0.22629
3438.66942,0.22732
3436.74083,0.22836
3434.81224,0.22868
3432.88366,0.22908
3430.95507,0.22978
3429.02648,0.23026
3427.09790,0.23058
3425.16931,0.23087
3423.24072,0.23151
3421.31214,0.23240
3419.38355,0.23287
3417.45497,0.23319
3415.52638,0.23407
3413.59779,0.23489
3411.66921,0.23511
3409.74062,0.23496
3407.81203,0.23464
3405.88345,0.23515
3403.95486,0.23592
3402.02628,0.23610
3400.09769,0.23641
3398.16910,0.23649
3396.24052,0.23640
3394.31193,0.23668
3392.38334,0.23705
3390.45476,0.23732
3388.52617,0.23760
3386.59758,0.23764
3384.66900,0.23757
3382.74041,0.23794
3380.81183,0.23839
3378.88324,0.23882
3376.95465,0.23910
3375.02607,0.23942
3373.09748,0.24014
3371.16889,0.24030
3369.24031,0.24034
3367.31172,0.24046
3365.38314,0.24012
3363.45455,0.24041
3361.52596,0.24107
3359.59738,0.24140
3357.66879,0.24153
3355.74020,0.24145
3353.81162,0.24147
3351.88303,0.24147
3349.95444,0.24148
3348.02586,0.24160
3346.09727,0.24185
3344.16869,0.24237
3342.24010,0.24237
3340.31151,0.24214
3338.38293,0.24244
3336.45434,0.24252
3334.52575,0.24254
3332.59717,0.24271
3330.66858,0.24256
3328.73999,0.24255
3326.81141,0.24280
3324.88282,0.24283
3322.95424,0.24291
3321.02565,0.24297
3319.09706,0.24260
3317.16848,0.24254
3315.23989,0.24268
3313.31130,0.24243
3311.38272,0.24270
3309.45413,0.24309
3307.52555,0.24259
3305.59696,0.24214
3303.66837,0.24230
3301.73979,0.24264
3299.81120,0.24274
3297.88261,0.24250
3295.95403,0.24231
3294.02544,0.24212
3292.09685,0.24188
3290.16827,0.24159
3288.23968,0.24078
3286.31110,0.23992
3284.38251,0.23972
3282.45392,0.23978
3280.52534,0.23940
3278.59675,0.23880
3276.66816,0.23830
3274.73958,0.23717
3272.81099,0.23585
3270.88241,0.23522
3268.95382,0.23486
3267.02523,0.23426
3265.09665,0.23331
3263.16806,0.23195
3261.23947,0.23034
3259.31089,0.22934
3257.38230,0.22871
3255.45371,0.22742
3253.52513,0.22625
3251.59654,0.22555
3249.66796,0.22475
3247.73937,0.22385
3245.81078,0.22275
3243.88220,0.22184
3241.95361,0.22114
3240.02502,0.22023
3238.09644,0.21896
3236.16785,0.21747
3234.23927,0.21683
3232.31068,0.21652
3230.38209,0.21565
3228.45351,0.21504
3226.52492,0.21460
3224.59633,0.21359
3222.66775,0.21225
3220.73916,0.21119
3218.81057,0.21052
3216.88199,0.21016
3214.95340,0.20964
3213.02482,0.20861
3211.09623,0.20760
3209.16764,0.20676
3207.23906,0.20592
3205.31047,0.20517
3203.38188,0.20454
3201.45330,0.20387
3199.52471,0.20295
3197.59612,0.20184
3195.66754,0.20058
3193.73895,0.19970
3191.81037,0.19898
3189.88178,0.19794
3187.95319,0.19692
3186.02461,0.19610
3184.09602,0.19567
3182.16743,0.19493
3180.23885,0.19373
3178.31026,0.19267
3176.38168,0.19175
3174.45309,0.19115
3172.52450,0.19037
3170.59592,0.18929
3168.66733,0.18840
3166.73874,0.18748
3164.81016,0.18643
3162.88157,0.18560
3160.95298,0.18489
3159.02440,0.18409
3157.09581,0.18348
3155.16723,0.18273
3153.23864,0.18181
3151.31005,0.18094
3149.38147,0.18013
3147.45288,0.17937
3145.52429,0.17851
3143.59571,0.17812
3141.66712,0.17753
3139.73854,0.17631
3137.80995,0.17549
3135.88136,0.17485
3133.95278,0.17431
3132.02419,0.17381
3130.09560,0.17315
3128.16702,0.17260
3126.23843,0.17223
3124.30984,0.17200
3122.38126,0.17171
3120.45267,0.17140
3118.52409,0.17087
3116.59550,0.17038
3114.66691,0.17016
3112.73833,0.16982
3110.80974,0.16955
3108.88115,0.16906
3106.95257,0.16834
3105.02398,0.16797
3103.09540,0.16764
3101.16681,0.16714
3099.23822,0.16693
3097.30964,0.16675
3095.38105,0.16636
3093.45246,0.16606
3091.52388,0.16587
3089.59529,0.16567
3087.66670,0.16503
3085.73812,0.16441
3083.80953,0.16448
3081.88095,0.16437
3079.95236,0.16380
3078.02377,0.16330
3076.09519,0.16267
3074.16660,0.16189
3072.23801,0.16144
3070.30943,0.16117
3068.38084,0.16074
3066.45225,0.16009
3064.52367,0.15951
3062.59508,0.15908
3060.66650,0.15845
3058.73791,0.15782
3056.80932,0.15691
3054.88074,0.15600
3052.95215,0.15568
3051.02356,0.15486
3049.09498,0.15379
3047.16639,0.15315
3045.23781,0.15252
3043.30922,0.15210
3041.38063,0.15175
3039.45205,0.15112
3037.52346,0.15033
3035.59487,0.14964
3033.66629,0.14909
3031.73770,0.14876
3029.80911,0.14843
3027.88053,0.14780
3025.95194,0.14729
3024.02336,0.14713
3022.09477,0.14697
3020.16618,0.14654
3018.23760,0.14622
3016.30901,0.14603
3014.38042,0.14585
3012.45184,0.14606
3010.52325,0.14632
3008.59467,0.14650
3006.66608,0.14671
3004.73749,0.14698
3002.80891,0.14758
3000.88032,0.14822
2998.95173,0.14873
2997.02315,0.14933
2995.09456,0.15046
2993.16597,0.15184
2991.23739,0.15302
2989.30880,0.15439
2987.38022,0.15594
2985.45163,0.15770
2983.52304,0.15965
2981.59446,0.16156
2979.66587,0.16368
2977.73728,0.16603
2975.80870,0.16845
2973.88011,0.17098
2971.95153,0.17339
2970.02294,0.17557
2968.09435,0.17781
2966.16577,0.18002
2964.23718,0.18254
2962.30859,0.18556
2960.38001,0.18817
2958.45142,0.19006
2956.52283,0.19192
2954.59425,0.19402
2952.66566,0.19616
2950.73708,0.19837
2948.80849,0.20071
2946.87990,0.20319
2944.95132,0.20627
2943.02273,0.21039
2941.09414,0.21517
2939.16556,0.21972
2937.23697,0.22399
2935.30838,0.22870
2933.37980,0.23364
2931.45121,0.23793
2929.52263,0.24169
2927.59404,0.24512
2925.66545,0.24783
2923.73687,0.24972
2921.80828,0.25051
2919.87969,0.24978
2917.95111,0.24659
2916.02252,0.23977
2914.09394,0.23071
2912.16535,0.22206
2910.23676,0.21485
2908.30818,0.20890
2906.37959,0.20412
2904.45100,0.20031
2902.52242,0.19686
2900.59383,0.19357
2898.66524,0.19049
2896.73666,0.18780
2894.80807,0.18527
2892.87949,0.18249
2890.95090,0.17971
2889.02231,0.17720
2887.09373,0.17492
2885.16514,0.17274
2883.23655,0.17086
2881.30797,0.16947
2879.37938,0.16869
2877.45080,0.16839
2875.52221,0.16805
2873.59362,0.16803
2871.66504,0.16850
2869.73645,0.16887
2867.80786,0.16916
2865.87928,0.17029
2863.95069,0.17264
2862.02210,0.17598
2860.09352,0.18077
2858.16493,0.18667
2856.23635,0.19272
2854.30776,0.19797
2852.37917,0.20018
2850.45059,0.19767
2848.52200,0.19025
2846.59341,0.17914
2844.66483,0.16710
2842.73624,0.15637
2840.80766,0.14758
2838.87907,0.14064
2836.95048,0.13479
2835.02190,0.12993
2833.09331,0.12618
2831.16472,0.12277
2829.23614,0.11981
2827.30755,0.11745
2825.37896,0.11540
2823.45038,0.11342
2821.52179,0.11129
2819.59321,0.10958
2817.66462,0.10814
2815.73603,0.10662
2813.80745,0.10539
2811.87886,0.10425
2809.95027,0.10300
2808.02169,0.10157
2806.09310,0.10030
2804.16451,0.09924
2802.23593,0.09815
2800.30734,0.09734
2798.37876,0.09658
2796.45017,0.09558
2794.52158,0.09462
2792.59300,0.09382
2790.66441,0.09302
2788.73582,0.09220
2786.80724,0.09142
2784.87865,0.09060
2782.95007,0.08986
2781.02148,0.08911
2779.09289,0.08831
2777.16431,0.08770
2775.23572,0.08710
2773.30713,0.08645
2771.37855,0.08582
2769.44996,0.08518
2767.52137,0.08477
2765.59279,0.08443
2763.66420,0.08379
2761.73562,0.08310
2759.80703,0.08272
2757.87844,0.08244
2755.94986,0.08205
2754.02127,0.08180
2752.09268,0.08144
2750.16410,0.08090
2748.23551,0.08050
2746.30693,0.08007
2744.37834,0.07973
2742.44975,0.07932
2740.52117,0.07881
2738.59258,0.07853
2736.66399,0.07807
2734.73541,0.07753
2732.80682,0.07722
2730.87823,0.07696
2728.94965,0.07665
2727.02106,0.07618
2725.09248,0.07561
2723.16389,0.07500
2721.23530,0.07448
2719.30672,0.07399
2717.37813,0.07355
2715.44954,0.07337
2713.52096,0.07310
2711.59237,0.07255
2709.66379,0.07188
2707.73520,0.07124
2705.80661,0.07080
2703.87803,0.07050
2701.94944,0.07016
2700.02085,0.06973
2698.09227,0.06940
2696.16368,0.06909
2694.23509,0.06873
2692.30651,0.06837
2690.37792,0.06797
2688.44934,0.06767
2686.52075,0.06724
2684.59216,0.06668
2682.66358,0.06618
2680.73499,0.06575
2678.80640,0.06556
2676.87782,0.06525
2674.94923,0.06466
2673.02064,0.06438
2671.09206,0.06422
2669.16347,0.06377
2667.23489,0.06312
2665.30630,0.06256
2663.37771,0.06232
2661.44913,0.06206
2659.52054,0.06165
2657.59195,0.06132
2655.66337,0.06107
2653.73478,0.06078
2651.80620,0.06017
2649.87761,0.05953
2647.94902,0.05936
2646.02044,0.05912
2644.09185,0.05868
2642.16326,0.05844
2640.23468,0.05805
2638.30609,0.05751
2636.37750,0.05723
2634.44892,0.05703
2632.52033,0.05669
2630.59175,0.05618
2628.66316,0.05575
2626.73457,0.05539
2624.80599,0.05477
2622.87740,0.05417
2620.94881,0.05381
2619.02023,0.05349
2617.09164,0.05321
2615.16306,0.05296
2613.23447,0.05269
2611.30588,0.05233
2609.37730,0.05195
2607.44871,0.05157
2605.52012,0.05113
2603.59154,0.05079
2601.66295,0.05037
2599.73436,0.04996
2597.80578,0.04974
2595.87719,0.04939
2593.94861,0.04897
2592.02002,0.04854
2590.09143,0.04803
2588.16285,0.04759
2586.23426,0.04723
2584.30567,0.04692
2582.37709,0.04677
2580.44850,0.04651
2578.51991,0.04591
2576.59133,0.04544
2574.66274,0.04522
2572.73416,0.04499
2570.80557,0.04476
2568.87698,0.04450
2566.94840,0.04422
2565.01981,0.04376
2563.09122,0.04320
2561.16264,0.04301
2559.23405,0.04289
2557.30547,0.04252
2555.37688,0.04225
2553.44829,0.04204
2551.51971,0.04166
2549.59112,0.04136
2547.66253,0.04097
2545.73395,0.04058
2543.80536,0.04048
2541.87677,0.04025
2539.94819,0.03995
2538.01960,0.03984
2536.09102,0.03959
2534.16243,0.03913
2532.23384,0.03861
2530.30526,0.03836
2528.37667,0.03827
2526.44808,0.03797
2524.51950,0.03748
2522.59091,0.03707
2520.66233,0.03687
2518.73374,0.03681
2516.80515,0.03674
2514.87657,0.03644
2512.94798,0.03608
2511.01939,0.03581
2509.09081,0.03551
2507.16222,0.03534
2505.23363,0.03499
2503.30505,0.03461
2501.37646,0.03429
2499.44788,0.03373
2497.51929,0.03355
2495.59070,0.03353
2493.66212,0.03319
2491.73353,0.03269
2489.80494,0.03222
2487.87636,0.03203
2485.94777,0.03179
2484.01919,0.03155
2482.09060,0.03129
2480.16201,0.03091
2478.23343,0.03063
2476.30484,0.03016
2474.37625,0.02966
2472.44767,0.02937
2470.51908,0.02909
2468.59049,0.02873
2466.66191,0.02825
2464.73332,0.02774
2462.80474,0.02746
2460.87615,0.02742
2458.94756,0.02724
2457.01898,0.02693
2455.09039,0.02652
2453.16180,0.02608
2451.23322,0.02575
2449.30463,0.02539
2447.37604,0.02520
2445.44746,0.02503
2443.51887,0.02455
2441.59029,0.02396
2439.66170,0.02368
2437.73311,0.02386
2435.80453,0.02364
2433.87594,0.02302
2431.94735,0.02245
2430.01877,0.02195
2428.09018,0.02168
2426.16160,0.02133
2424.23301,0.02103
2422.30442,0.02083
2420.37584,0.02040
2418.44725,0.02011
2416.51866,0.01988
2414.59008,0.01951
2412.66149,0.01927
2410.73290,0.01912
2408.80432,0.01891
2406.87573,0.01844
2404.94715,0.01794
2403.01856,0.01766
2401.08997,0.01729
2399.16139,0.01694
2397.23280,0.01669
2395.30421,0.01643
2393.37563,0.01639
2391.44704,0.01649
2389.51846,0.01639
2387.58987,0.01587
2385.66128,0.01541
2383.73270,0.01523
2381.80411,0.01502
2379.87552,0.01495
2377.94694,0.01519
2376.01835,0.01574
2374.08976,0.01615
2372.16118,0.01643
2370.23259,0.01719
2368.30401,0.01775
2366.37542,0.01789
2364.44683,0.01784
2362.51825,0.01754
2360.58966,0.01738
2358.66107,0.01687
2356.73249,0.01599
2354.80390,0.01514
2352.87532,0.01420
2350.94673,0.01306
2349.01814,0.01240
2347.08956,0.01307
2345.16097,0.01402
2343.23238,0.01426
2341.30380,0.01438
2339.37521,0.01440
2337.44662,0.01426
2335.51804,0.01408
2333.58945,0.01364
2331.66087,0.01318
2329.73228,0.01284
2327.80369,0.01223
2325.87511,0.01159
2323.94652,0.01131
2322.01793,0.01108
2320.08935,0.01053
2318.16076,0.00986
2316.23217,0.00954
2314.30359,0.00929
2312.37500,0.00889
2310.44642,0.00857
2308.51783,0.00821
2306.58924,0.00792
2304.66066,0.00761
2302.73207,0.00727
2300.80348,0.00707
2298.87490,0.00686
2296.94631,0.00662
2295.01773,0.00644
2293.08914,0.00644
2291.16055,0.00631
2289.23197,0.00605
2287.30338,0.00598
2285.37479,0.00594
2283.44621,0.00585
2281.51762,0.00548
2279.58903,0.00517
2277.66045,0.00505
2275.73186,0.00498
2273.80328,0.00492
2271.87469,0.00459
2269.94610,0.00453
2268.01752,0.00466
2266.08893,0.00466
2264.16034,0.00469
2262.23176,0.00441
2260.30317,0.00399
2258.37459,0.00379
2256.44600,0.00384
2254.51741,0.00365
2252.58883,0.00335
2250.66024,0.00336
2248.73165,0.00320
2246.80307,0.00306
2244.87448,0.00308
2242.94589,0.00296
2241.01731,0.00274
2239.08872,0.00260
2237.16014,0.00254
2235.23155,0.00246
2233.30296,0.00246
2231.37438,0.00229
2229.44579,0.00216
2227.51720,0.00223
2225.58862,0.00197
2223.66003,0.00179
2221.73145,0.00176
2219.80286,0.00162
2217.87427,0.00154
2215.94569,0.00156
2214.01710,0.00165
2212.08851,0.00148
2210.15993,0.00123
2208.23134,0.00124
2206.30275,0.00127
2204.37417,0.00122
2202.44558,0.00116
2200.51700,0.00116
2198.58841,0.00107
2196.65982,0.00104
2194.73124,0.00119
2192.80265,0.00126
2190.87406,0.00115
2188.94548,0.00098
2187.01689,0.00087
2185.08830,0.00073
2183.15972,0.00060
2181.23113,0.00066
2179.30255,0.00085
2177.37396,0.00099
2175.44537,0.00085
2173.51679,0.00067
2171.58820,0.00056
2169.65961,0.00043
2167.73103,0.00054
2165.80244,0.00072
2163.87386,0.00073
2161.94527,0.00062
2160.01668,0.00051
2158.08810,0.00057
2156.15951,0.00057
2154.23092,0.00056
2152.30234,0.00068
2150.37375,0.00075
2148.44516,0.00077
2146.51658,0.00072
2144.58799,0.00087
2142.65941,0.00101
2140.73082,0.00096
2138.80223,0.00105
2136.87365,0.00082
2134.94506,0.00040
2133.01647,0.00051
2131.08789,0.00074
2129.15930,0.00076
2127.23072,0.00067
2125.30213,0.00052
2123.37354,0.00049
2121.44496,0.00059
2119.51637,0.00061
2117.58778,0.00055
2115.65920,0.00040
2113.73061,0.00034
2111.80202,0.00028
2109.87344,0.00006
2107.94485,0.00000
2106.01627,0.00012
2104.08768,0.00032
2102.15909,0.00052
2100.23051,0.00060
2098.30192,0.00059
2096.37333,0.00036
2094.44475,0.00012
2092.51616,0.00007
2090.58758,0.00002
2088.65899,-0.00001
2086.73040,0.00014
2084.80182,0.00023
2082.87323,0.00013
2080.94464,0.00007
2079.01606,0.00009
2077.08747,0.00019
2075.15888,0.00026
2073.23030,0.00022
2071.30171,0.00006
2069.37313,-0.00007
2067.44454,0.00013
2065.51595,0.00024
2063.58737,0.00022
2061.65878,0.00023
2059.73019,0.00020
2057.80161,0.00023
2055.87302,0.00019
2053.94443,0.00025
2052.01585,0.00032
2050.08726,0.00045
2048.15868,0.00071
2046.23009,0.00075
2044.30150,0.00090
2042.37292,0.00091
2040.44433,0.00075
2038.51574,0.00105
2036.58716,0.00141
2034.65857,0.00159
2032.72999,0.00181
2030.80140,0.00196
2028.87281,0.00189
2026.94423,0.00192
2025.01564,0.00205
2023.08705,0.00201
2021.15847,0.00207
2019.22988,0.00214
2017.30129,0.00211
2015.37271,0.00217
2013.44412,0.00245
2011.51554,0.00269
2009.58695,0.00262
2007.65836,0.00268
2005.72978,0.00289
2003.80119,0.00312
2001.87260,0.00327
1999.94402,0.00317
1998.01543,0.00301
1996.08685,0.00303
1994.15826,0.00317
1992.22967,0.00304
1990.30109,0.00284
1988.37250,0.00281
1986.44391,0.00271
1984.51533,0.00263
1982.58674,0.00252
1980.65815,0.00248
1978.72957,0.00260
1976.80098,0.00262
1974.87240,0.00241
1972.94381,0.00218
1971.01522,0.00222
1969.08664,0.00222
1967.15805,0.00179
1965.22946,0.00133
1963.30088,0.00127
1961.37229,0.00125
1959.44371,0.00109
1957.51512,0.00106
1955.58653,0.00097
1953.65795,0.00087
1951.72936,0.00091
1949.80077,0.00091
1947.87219,0.00079
1945.94360,0.00075
1944.01501,0.00085
1942.08643,0.00040
1940.15784,0.00000
1938.22926,0.00009
1936.30067,0.00000
1934.37208,-0.00007
1932.44350,-0.00014
1930.51491,-0.00016
1928.58632,-0.00021
1926.65774,-0.00031
1924.72915,0.00000
1922.80056,-0.00010
1920.87198,0.00015
1918.94339,0.00079
1917.01481,0.00030
1915.08622,0.00042
1913.15763,0.00122
1911.22905,0.00147
1909.30046,0.00181
1907.37187,0.00226
1905.44329,0.00286
1903.51470,0.00338
1901.58612,0.00377
1899.65753,0.00428
1897.72894,0.00492
1895.80036,0.00560
1893.87177,0.00577
1891.94318,0.00633
1890.01460,0.00682
1888.08601,0.00666
1886.15742,0.00714
1884.22884,0.00745
1882.30025,0.00758
1880.37167,0.00775
1878.44308,0.00765
1876.51449,0.00784
1874.58591,0.00794
1872.65732,0.00835
1870.72873,0.00886
1868.80015,0.00818
1866.87156,0.00702
1864.94298,0.00685
1863.01439,0.00684
1861.08580,0.00619
1859.15722,0.00554
1857.22863,0.00490
1855.30004,0.00452
1853.37146,0.00398
1851.44287,0.00352
1849.51428,0.00296
1847.58570,0.00249
1845.65711,0.00286
1843.72853,0.00123
1841.79994,0.00000
1839.87135,0.00071
1837.94277,0.00059
1836.01418,0.00013
1834.08559,-0.00010
1832.15701,0.00052
1830.22842,0.00042
1828.29984,-0.00030
1826.37125,0.00031
1824.44266,0.00016
1822.51408,0.00021
1820.58549,0.00081
1818.65690,0.00127
1816.72832,0.00187
1814.79973,0.00223
1812.87114,0.00309
1810.94256,0.00399
1809.01397,0.00488
1807.08539,0.00606
1805.15680,0.00740
1803.22821,0.00901
1801.29963,0.01035
1799.37104,0.01166
1797.44245,0.01338
1795.51387,0.01598
1793.58528,0.01864
1791.65669,0.01954
1789.72811,0.02066
1787.79952,0.02369
1785.87094,0.02634
1783.94235,0.02825
1782.01376,0.03075
1780.08518,0.03304
1778.15659,0.03517
1776.22800,0.03794
1774.29942,0.04123
1772.37083,0.04281
1770.44225,0.04347
1768.51366,0.04595
1766.58507,0.04777
1764.65649,0.05075
1762.72790,0.05421
1760.79931,0.05551
1758.87073,0.05851
1756.94214,0.06148
1755.01355,0.06425
1753.08497,0.06891
1751.15638,0.07253
1749.22780,0.07552
1747.29921,0.07972
1745.37062,0.08449
1743.44204,0.08934
1741.51345,0.09441
1739.58486,0.09850
1737.65628,0.10245
1735.72769,0.10834
1733.79911,0.11018
1731.87052,0.11045
1729.94193,0.11469
1728.01335,0.11758
1726.08476,0.12073
1724.15617,0.12392
1722.22759,0.12680
1720.29900,0.13173
1718.37041,0.13516
1716.44183,0.13622
1714.51324,0.13818
1712.58466,0.14171
1710.65607,0.14506
1708.72748,0.14818
1706.79890,0.15181
1704.87031,0.15401
1702.94172,0.15854
1701.01314,0.16323
1699.08455,0.16340
1697.15596,0.16743
1695.22738,0.17035
1693.29879,0.17189
1691.37021,0.17697
1689.44162,0.18009
1687.51303,0.18447
1685.58445,0.18954
1683.65586,0.18879
1681.72727,0.19053
1679.79869,0.19463
1677.87010,0.19902
1675.94152,0.20235
1674.01293,0.20341
1672.08434,0.20670
1670.15576,0.20948
1668.22717,0.20982
1666.29858,0.21185
1664.37000,0.21496
1662.44141,0.21551
1660.51282,0.21565
1658.58424,0.21699
1656.65565,0.21876
1654.72707,0.22187
1652.79848,0.21739
1650.86989,0.21300
1648.94131,0.21643
1647.01272,0.21669
1645.08413,0.21388
1643.15555,0.21375
1641.22696,0.21442
1639.29838,0.21511
1637.36979,0.21663
1635.44120,0.21501
1633.51262,0.21198
1631.58403,0.21285
1629.65544,0.21272
1627.72686,0.21073
1625.79827,0.20881
1623.86968,0.20634
1621.94110,0.20213
1620.01251,0.19966
1618.08393,0.19876
1616.15534,0.19333
1614.22675,0.18950
1612.29817,0.18848
1610.36958,0.18673
1608.44099,0.18478
1606.51241,0.18256
1604.58382,0.18070
1602.65524,0.17824
1600.72665,0.17601
1598.79806,0.17408
1596.86948,0.17215
1594.94089,0.17023
1593.01230,0.16808
1591.08372,0.16637
1589.15513,0.16440
1587.22654,0.16263
1585.29796,0.16078
1583.36937,0.15911
1581.44079,0.15723
1579.51220,0.15608
1577.58361,0.15616
1575.65503,0.15270
1573.72644,0.15020
1571.79785,0.15180
1569.86927,0.15166
1567.94068,0.15017
1566.01209,0.15085
1564.08351,0.15138
1562.15492,0.15376
1560.22634,0.15715
1558.29775,0.15314
1556.36916,0.15200
1554.44058,0.15414
1552.51199,0.15448
1550.58340,0.15567
1548.65482,0.15595
1546.72623,0.15708
1544.79765,0.15821
1542.86906,0.15845
1540.94047,0.15890
1539.01189,0.15431
1537.08330,0.15341
1535.15471,0.15564
1533.22613,0.15452
1531.29754,0.15237
1529.36895,0.15201
1527.44037,0.15183
1525.51178,0.15057
1523.58320,0.15099
1521.65461,0.15026
1519.72602,0.14812
1517.79744,0.14870
1515.86885,0.14792
1513.94026,0.14634
1512.01168,0.14440
1510.08309,0.14220
1508.15451,0.14062
1506.22592,0.13301
1504.29733,0.12570
1502.36875,0.12392
1500.44016,0.12158
1498.51157,0.11815
1496.58299,0.11332
1494.65440,0.10838
1492.72581,0.10682
1490.79723,0.10495
1488.86864,0.10125
1486.94006,0.09861
1485.01147,0.09720
1483.08288,0.09718
1481.15430,0.09745
1479.22571,0.09849
1477.29712,0.10093
1475.36854,0.10408
1473.43995,0.10841
1471.51137,0.11259
1469.58278,0.11814
1467.65419,0.12475
1465.72561,0.12788
1463.79702,0.12798
1461.86843,0.12877
1459.93985,0.13146
1458.01126,0.13314
1456.08267,0.13054
1454.15409,0.12994
1452.22550,0.13089
1450.29692,0.13090
1448.36833,0.13072
1446.43974,0.13000
1444.51116,0.12979
1442.58257,0.12950
1440.65398,0.12916
1438.72540,0.13000
1436.79681,0.12894
1434.86822,0.12684
1432.93964,0.12708
1431.01105,0.12718
1429.08247,0.12613
1427.15388,0.12572
1425.22529,0.12570
1423.29671,0.12543
1421.36812,0.12640
1419.43953,0.12608
1417.51095,0.12371
1415.58236,0.12373
1413.65378,0.12363
1411.72519,0.12282
1409.79660,0.12221
1407.86802,0.12130
1405.93943,0.12036
1404.01084,0.11836
1402.08226,0.11753
1400.15367,0.11718
1398.22508,0.11572
1396.29650,0.11501
1394.36791,0.11380
1392.43933,0.11247
1390.51074,0.11258
1388.58215,0.11232
1386.65357,0.10970
1384.72498,0.10753
1382.79639,0.10882
1380.86781,0.11184
1378.93922,0.11389
1377.01064,0.11438
1375.08205,0.11390
1373.15346,0.11259
1371.22488,0.11154
1369.29629,0.11058
1367.36770,0.10882
1365.43912,0.10761
1363.51053,0.10612
1361.58194,0.10412
1359.65336,0.10287
1357.72477,0.10199
1355.79619,0.10138
1353.86760,0.10085
1351.93901,0.10038
1350.01043,0.09992
1348.08184,0.09962
1346.15325,0.09931
1344.22467,0.09892
1342.29608,0.09885
1340.36750,0.09839
1338.43891,0.09764
1336.51032,0.09711
1334.58174,0.09680
1332.65315,0.09662
1330.72456,0.09640
1328.79598,0.09608
1326.86739,0.09579
1324.93880,0.09591
1323.01022,0.09583
1321.08163,0.09554
1319.15305,0.09540
1317.22446,0.09509
1315.29587,0.09500
1313.36729,0.09490
1311.43870,0.09458
1309.51011,0.09434
1307.58153,0.09391
1305.65294,0.09341
1303.72435,0.09327
1301.79577,0.09351
1299.86718,0.09371
1297.93860,0.09392
1296.01001,0.09436
1294.08142,0.09499
1292.15284,0.09592
1290.22425,0.09688
1288.29566,0.09781
1286.36708,0.09922
1284.43849,0.10101
1282.50991,0.10274
1280.58132,0.10432
1278.65273,0.10591
1276.72415,0.10761
1274.79556,0.10956
1272.86697,0.11197
1270.93839,0.11460
1269.00980,0.11721
1267.08121,0.12003
1265.15263,0.12341
1263.22404,0.12740
1261.29546,0.13179
1259.36687,0.13660
1257.43828,0.14205
1255.50970,0.14800
1253.58111,0.15424
1251.65252,0.16068
1249.72394,0.16729
1247.79535,0.17410
1245.86677,0.18046
1243.93818,0.18606
1242.00959,0.19142
1240.08101,0.19652
1238.15242,0.20118
1236.22383,0.20528
1234.29525,0.20875
1232.36666,0.21194
1230.43807,0.21500
1228.50949,0.21778
1226.58090,0.22031
1224.65232,0.22275
1222.72373,0.22509
1220.79514,0.22718
1218.86656,0.22920
1216.93797,0.23106
1215.00938,0.23253
1213.08080,0.23426
1211.15221,0.23644
1209.22363,0.23855
1207.29504,0.24046
1205.36645,0.24174
1203.43787,0.24264
1201.50928,0.24396
1199.58069,0.24523
1197.65211,0.24622
1195.72352,0.24721
1193.79493,0.24842
1191.86635,0.25019
1189.93776,0.25197
1188.00918,0.25333
1186.08059,0.25415
1184.15200,0.25480
1182.22342,0.25604
1180.29483,0.25775
1178.36624,0.26008
1176.43766,0.26259
1174.50907,0.26498
1172.58048,0.26763
1170.65190,0.27006
1168.72331,0.27240
1166.79473,0.27484
1164.86614,0.27747
1162.93755,0.28010
1161.00897,0.28178
1159.08038,0.28280
1157.15179,0.28371
1155.22321,0.28467
1153.29462,0.28562
1151.36604,0.28635
1149.43745,0.28755
1147.50886,0.28936
1145.58028,0.29124
1143.65169,0.29347
1141.72310,0.29586
1139.79452,0.29815
1137.86593,0.30093
1135.93734,0.30396
1134.00876,0.30687
1132.08017,0.30996
1130.15159,0.31289
1128.22300,0.31655
1126.29441,0.32126
1124.36583,0.32581
1122.43724,0.33037
1120.50865,0.33506
1118.58007,0.34047
1116.65148,0.34672
1114.72290,0.35238
1112.79431,0.35827
1110.86572,0.36497
1108.93714,0.37161
1107.00855,0.37758
1105.07996,0.38269
1103.15138,0.38725
1101.22279,0.39092
1099.29420,0.39403
1097.36562,0.39637
1095.43703,0.39756
1093.50845,0.39802
1091.57986,0.39761
1089.65127,0.39694
1087.72269,0.39644
1085.79410,0.39562
1083.86551,0.39374
1081.93693,0.39181
1080.00834,0.39013
1078.07976,0.38721
1076.15117,0.38375
1074.22258,0.38048
1072.29400,0.37719
1070.36541,0.37424
1068.43682,0.37194
1066.50824,0.36926
1064.57965,0.36625
1062.65106,0.36289
1060.72248,0.35780
1058.79389,0.35307
1056.86531,0.34890
1054.93672,0.34413
1053.00813,0.33995
1051.07955,0.33600
1049.15096,0.33240
1047.22237,0.32908
1045.29379,0.32606
1043.36520,0.32306
1041.43661,0.31962
1039.50803,0.31718
1037.57944,0.31527
1035.65086,0.31266
1033.72227,0.30952
1031.79368,0.30626
1029.86510,0.30256
1027.93651,0.29839
1026.00792,0.29404
1024.07934,0.28917
1022.15075,0.28446
1020.22217,0.27989
1018.29358,0.27562
1016.36499,0.27215
1014.43641,0.26822
1012.50782,0.26372
1010.57923,0.25970
1008.65065,0.25600
1006.72206,0.25213
1004.79347,0.24845
1002.86489,0.24403
1000.93630,0.23847
999.00772,0.23345
997.07913,0.22837
995.15054,0.22302
993.22196,0.21832
991.29337,0.21365
989.36478,0.20895
987.43620,0.20385
985.50761,0.19807
983.57903,0.19224
981.65044,0.18635
979.72185,0.18023
977.79327,0.17356
975.86468,0.16637
973.93609,0.15972
972.00751,0.15358
970.07892,0.14678
968.15033,0.14008
966.22175,0.13448
964.29316,0.12928
962.36458,0.12454
960.43599,0.12019
958.50740,0.11605
956.57882,0.11273
954.65023,0.11000
952.72164,0.10750
950.79306,0.10511
948.86447,0.10308
946.93589,0.10145
945.00730,0.09974
943.07871,0.09848
941.15013,0.09725
939.22154,0.09560
937.29295,0.09460
935.36437,0.09359
933.43578,0.09195
931.50719,0.09060
929.57861,0.08928
927.65002,0.08763
925.72144,0.08639
923.79285,0.08570
921.86426,0.08483
919.93568,0.08405
918.00709,0.08366
916.07850,0.08277
914.14992,0.08144
912.22133,0.07991
910.29274,0.07760
908.36416,0.07427
906.43557,0.07032
904.50699,0.06648
902.57840,0.06192
900.64981,0.05677
898.72123,0.05238
896.79264,0.04822
894.86405,0.04441
892.93547,0.04114
891.00688,0.03823
889.07830,0.03560
887.14971,0.03275
885.22112,0.03051
883.29254,0.02828
881.36395,0.02534
879.43536,0.02237
877.50678,0.01956
875.57819,0.01717
873.64960,0.01447
871.72102,0.01162
869.79243,0.00946
867.86385,0.00764
865.93526,0.00548
864.00667,0.00350
862.07809,0.00251
860.14950,0.00182
858.22091,0.00146
856.29233,0.00079
854.36374,0.00000
852.43516,0.00065
850.50657,0.00135
848.57798,0.00189
846.64940,0.00338
844.72081,0.00500
842.79222,0.00716
840.86364,0.01080
838.93505,0.01413
837.00646,0.01671
835.07788,0.02047
833.14929,0.02404
831.22071,0.02670
829.29212,0.02917
827.36353,0.03110
825.43495,0.03309
823.50636,0.03458
821.57777,0.03554
819.64919,0.03669
817.72060,0.03842
815.79201,0.04107
813.86343,0.04336
811.93484,0.04510
810.00626,0.04787
808.07767,0.05221
806.14908,0.05696
804.22050,0.06102
802.29191,0.06425
800.36332,0.06591
798.43474,0.06497
796.50615,0.06235
794.57757,0.05906
792.64898,0.05573
790.72039,0.05356
788.79181,0.05132
786.86322,0.04844
784.93463,0.04680
783.00605,0.04667
781.07746,0.04656
779.14887,0.04470
777.22029,0.04095
775.29170,0.03565
773.36312,0.03065
771.43453,0.02721
769.50594,0.02377
767.57736,0.02134
765.64877,0.02047
763.72018,0.01990
761.79160,0.01934
759.86301,0.01901
757.93443,0.01937
756.00584,0.01975
754.07725,0.01952
752.14867,0.01841
750.22008,0.01713
748.29149,0.01636
746.36291,0.01543
744.43432,0.01410
742.50573,0.01229
740.57715,0.01088
738.64856,0.00964
736.71998,0.00815
734.79139,0.00724
732.86280,0.00634
730.93422,0.00564
729.00563,0.00547
727.07704,0.00609
725.14846,0.00722
723.21987,0.00799
721.29129,0.00833
719.36270,0.00713
717.43411,0.00524
715.50553,0.00449
713.57694,0.00399
711.64835,0.00358
709.71977,0.00417
707.79118,0.00520
705.86259,0.00619
703.93401,0.00753
702.00542,0.00904
700.07684,0.01134
698.14825,0.01448
696.21966,0.01654
694.29108,0.01654
692.36249,0.01487
690.43390,0.01221
688.50532,0.00992
686.57673,0.00887
684.64814,0.00785
682.71956,0.00671
680.79097,0.00641
678.86239,0.00604
676.93380,0.00519
675.00521,0.00492
673.07663,0.00524
671.14804,0.00500
669.21945,0.00528
667.29087,0.00584
665.36228,0.00446
663.43370,0.00334
661.50511,0.00328
659.57652,0.00286
657.64794,0.00309
655.71935,0.00376
653.79076,0.00367
651.86218,0.00416
649.93359,0.00557
648.00500,0.00652
646.07642,0.00735
644.14783,0.00772
642.21925,0.00820
640.29066,0.00977
638.36207,0.01035
636.43349,0.01074
634.50490,0.01203
632.57631,0.01228
630.64773,0.01171
628.71914,0.01222
626.79056,0.01352
624.86197,0.01417
622.93338,0.01524
621.00480,0.01763
619.07621,0.01874
617.14762,0.01769
615.21904,0.01826
613.29045,0.02036
611.36186,0.02152
609.43328,0.02335
607.50469,0.02480
605.57611,0.02577
603.64752,0.02856
601.71893,0.03127
599.79035,0.03248
597.86176,0.03352
595.93317,0.03503
594.00459,0.03629
592.07600,0.03777
590.14742,0.04076
588.21883,0.04489
586.29024,0.04756
584.36166,0.04901
582.43307,0.05131
580.50448,0.05296
578.57590,0.05603
576.64731,0.06070
574.71872,0.06395
572.79014,0.06732
570.86155,0.06981
568.93297,0.07135
567.00438,0.07406
565.07579,0.07829
563.14721,0.08377
561.21862,0.08785
559.29003,0.08995
557.36145,0.09178
555.43286,0.09331
553.50427,0.09594
551.57569,0.09956
549.64710,0.10125
547.71852,0.10329
545.78993,0.10725
543.86134,0.11147
541.93276,0.11397
540.00417,0.11446
538.07558,0.11932
536.14700,0.12578
534.21841,0.12753
532.28983,0.12848
530.36124,0.13080
528.43265,0.13156
526.50407,0.12953
524.57548,0.12893
522.64689,0.12758
520.71831,0.12469
518.78972,0.12362
516.86113,0.12054
514.93255,0.11836
513.00396,0.11771
511.07538,0.11481
509.14679,0.11020
507.21820,0.10824
505.28962,0.11185
503.36103,0.11427
501.43244,0.11736
499.50386,0.12284
497.57527,0.12807
495.64669,0.13407
493.71810,0.13927
491.78951,0.14613
489.86093,0.15502
487.93234,0.16636
486.00375,0.18095
484.07517,0.19666
482.14658,0.20714
480.21799,0.20909
478.28941,0.21059
476.36082,0.21465
474.43224,0.22424
472.50365,0.23266
470.57506,0.23220
468.64648,0.23062
466.71789,0.22584
464.78930,0.21722
462.86072,0.20711
460.93213,0.19846
459.00355,0.19173
457.07496,0.17977
455.14637,0.16539
453.21779,0.15508
451.28920,0.14789
449.36061,0.14230
447.43203,0.13813
445.50344,0.13018
443.57485,0.12325
441.64627,0.11667
439.71768,0.11078
437.78910,0.11373
435.86051,0.10954
433.93192,0.09765
432.00334,0.08832
430.07475,0.08489
428.14616,0.08506
426.21758,0.07546
424.28899,0.07004
422.36040,0.07259
420.43182,0.07068
418.50323,0.06090
416.57465,0.05121
414.64606,0.05180
412.71747,0.04643
410.78889,0.03504
408.86030,0.02210
406.93171,0.00488
405.00313,0.00000
403.07454,0.00139
401.14596,0.00080
399.21737,0.00000
