3747.24323,0.00000
3745.31464,0.00141
3743.38605,0.00051
3741.45747,0.00059
3739.52888,0.00219
3737.60030,0.00309
3735.67171,0.00328
3733.74312,0.00330
3731.81454,0.00379
3729.88595,0.00440
3727.95736,0.00551
3726.02878,0.00638
3724.10019,0.00703
3722.17161,0.00834
3720.24302,0.00947
3718.31443,0.01134
3716.38585,0.01368
3714.45726,0.01649
3712.52867,0.01944
3710.60009,0.02166
3708.67150,0.02457
3706.74291,0.02779
3704.81433,0.03141
3702.88574,0.03487
3700.95716,0.03744
3699.02857,0.03973
3697.09998,0.04113
3695.17140,0.04198
3693.24281,0.04249
3691.31422,0.04361
3689.38564,0.04465
3687.45705,0.04513
3685.52846,0.04719
3683.59988,0.05004
3681.67129,0.05309
3679.74271,0.05634
3677.81412,0.06044
3675.88553,0.06435
3673.95695,0.06752
3672.02836,0.07238
3670.09977,0.07664
3668.17119,0.08025
3666.24260,0.08510
3664.31402,0.08968
3662.38543,0.09411
3660.45684,0.09831
3658.52826,0.10251
3656.59967,0.10629
3654.67108,0.10936
3652.74250,0.11326
3650.81391,0.11694
3648.88532,0.11958
3646.95674,0.12209
3645.02815,0.12508
3643.09957,0.12817
3641.17098,0.13116
3639.24239,0.13415
3637.31381,0.13694
3635.38522,0.13998
3633.45663,0.14281
3631.52805,0.14598
3629.59946,0.14887
3627.67088,0.14993
3625.74229,0.15138
3623.81370,0.15292
3621.88512,0.15377
3619.95653,0.15374
3618.02794,0.15213
3616.09936,0.15095
3614.17077,0.15019
3612.24218,0.14916
3610.31360,0.14832
3608.38501,0.14736
3606.45643,0.14640
3604.52784,0.14576
3602.59925,0.14527
3600.67067,0.14487
3598.74208,0.14474
3596.81349,0.14453
3594.88491,0.14424
3592.95632,0.14406
3591.02774,0.14411
3589.09915,0.14451
3587.17056,0.14462
3585.24198,0.14461
3583.31339,0.14493
3581.38480,0.14557
3579.45622,0.14639
3577.52763,0.14717
3575.59904,0.14794
3573.67046,0.14863
3571.74187,0.14956
3569.81329,0.15098
3567.88470,0.15227
3565.95611,0.15299
3564.02753,0.15383
3562.09894,0.15499
3560.17035,0.15607
3558.24177,0.15739
3556.31318,0.15867
3554.38459,0.15984
3552.45601,0.16102
3550.52742,0.16193
3548.59884,0.16306
3546.67025,0.16420
3544.74166,0.16524
3542.81308,0.16651
3540.88449,0.16774
3538.95590,0.16896
3537.02732,0.16998
3535.09873,0.17097
3533.17015,0.17230
3531.24156,0.17369
3529.31297,0.17488
3527.38439,0.17585
3525.45580,0.17671
3523.52721,0.17764
3521.59863,0.17879
3519.67004,0.17987
3517.74145,0.18089
3515.81287,0.18198
3513.88428,0.18295
3511.95570,0.18399
3510.02711,0.18504
3508.09852,0.18619
3506.16994,0.18739
3504.24135,0.18836
3502.31276,0.18932
3500.38418,0.19048
3498.45559,0.19155
3496.52701,0.19241
3494.59842,0.19335
3492.66983,0.19441
3490.74125,0.19547
3488.81266,0.19635
3486.88407,0.19718
3484.95549,0.19797
3483.02690,0.19872
3481.09831,0.19963
3479.16973,0.20053
3477.24114,0.20156
3475.31256,0.20246
3473.38397,0.20309
3471.45538,0.20388
3469.52680,0.20471
3467.59821,0.20546
3465.66962,0.20616
3463.74104,0.20699
3461.81245,0.20790
3459.88386,0.20864
3457.95528,0.20935
3456.02669,0.21003
3454.09811,0.21074
3452.16952,0.21149
3450.24093,0.21228
3448.31235,0.21296
3446.38376,0.21354
3444.45517,0.21420
3442.52659,0.21481
3440.59800,0.21545
3438.66942,0.21606
3436.74083,0.21658
3434.81224,0.21716
3432.88366,0.21772
3430.95507,0.21834
3429.02648,0.21896
3427.09790,0.21945
3425.16931,0.21985
3423.24072,0.22040
3421.31214,0.22107
3419.38355,0.22160
3417.45497,0.22199
3415.52638,0.22233
3413.59779,0.22256
3411.66921,0.22296
3409.74062,0.22336
3407.81203,0.22359
3405.88345,0.22411
3403.95486,0.22462
3402.02628,0.22478
3400.09769,0.22495
3398.16910,0.22529
3396.24052,0.22572
3394.31193,0.22594
3392.38334,0.22604
3390.45476,0.22628
3388.52617,0.22647
3386.59758,0.22661
3384.66900,0.22686
3382.74041,0.22705
3380.81183,0.22714
3378.88324,0.22745
3376.95465,0.22773
3375.02607,0.22777
3373.09748,0.22786
3371.16889,0.22803
3369.24031,0.22818
3367.31172,0.22835
3365.38314,0.22846
3363.45455,0.22840
3361.52596,0.22847
3359.59738,0.22873
3357.66879,0.22897
3355.74020,0.22911
3353.81162,0.22906
3351.88303,0.22909
3349.95444,0.22922
3348.02586,0.22939
3346.09727,0.22956
3344.16869,0.22967
3342.24010,0.22978
3340.31151,0.22965
3338.38293,0.22953
3336.45434,0.22957
3334.52575,0.22964
3332.59717,0.22981
3330.66858,0.22968
3328.73999,0.22941
3326.81141,0.22924
3324.88282,0.22913
3322.95424,0.22919
3321.02565,0.22925
3319.09706,0.22930
3317.16848,0.22914
3315.23989,0.22886
3313.31130,0.22878
3311.38272,0.22864
3309.45413,0.22838
3307.52555,0.22822
3305.59696,0.22814
3303.66837,0.22807
3301.73979,0.22794
3299.81120,0.22765
3297.88261,0.22731
3295.95403,0.22707
3294.02544,0.22676
3292.09685,0.22644
3290.16827,0.22616
3288.23968,0.22571
3286.31110,0.22532
3284.38251,0.22495
3282.45392,0.22425
3280.52534,0.22370
3278.59675,0.22322
3276.66816,0.22259
3274.73958,0.22209
3272.81099,0.22141
3270.88241,0.22052
3268.95382,0.21964
3267.02523,0.21885
3265.09665,0.21801
3263.16806,0.21703
3261.23947,0.21616
3259.31089,0.21523
3257.38230,0.21427
3255.45371,0.21348
3253.52513,0.21259
3251.59654,0.21157
3249.66796,0.21061
3247.73937,0.20973
3245.81078,0.20870
3243.88220,0.20782
3241.95361,0.20712
3240.02502,0.20625
3238.09644,0.20546
3236.16785,0.20475
3234.23927,0.20399
3232.31068,0.20318
3230.38209,0.20233
3228.45351,0.20155
3226.52492,0.20080
3224.59633,0.20011
3222.66775,0.19930
3220.73916,0.19830
3218.81057,0.19747
3216.88199,0.19684
3214.95340,0.19611
3213.02482,0.19535
3211.09623,0.19472
3209.16764,0.19389
3207.23906,0.19304
3205.31047,0.19244
3203.38188,0.19161
3201.45330,0.19061
3199.52471,0.18978
3197.59612,0.18896
3195.66754,0.18815
3193.73895,0.18743
3191.81037,0.18666
3189.88178,0.18582
3187.95319,0.18497
3186.02461,0.18407
3184.09602,0.18326
3182.16743,0.18238
3180.23885,0.18139
3178.31026,0.18054
3176.38168,0.17983
3174.45309,0.17910
3172.52450,0.17821
3170.59592,0.17741
3168.66733,0.17661
3166.73874,0.17569
3164.81016,0.17486
3162.88157,0.17400
3160.95298,0.17312
3159.02440,0.17226
3157.09581,0.17142
3155.16723,0.17066
3153.23864,0.16990
3151.31005,0.16919
3149.38147,0.16853
3147.45288,0.16783
3145.52429,0.16719
3143.59571,0.16661
3141.66712,0.16596
3139.73854,0.16525
3137.80995,0.16452
3135.88136,0.16379
3133.95278,0.16321
3132.02419,0.16265
3130.09560,0.16211
3128.16702,0.16161
3126.23843,0.16097
3124.30984,0.16052
3122.38126,0.16016
3120.45267,0.15962
3118.52409,0.15913
3116.59550,0.15869
3114.66691,0.15829
3112.73833,0.15787
3110.80974,0.15741
3108.88115,0.15698
3106.95257,0.15665
3105.02398,0.15626
3103.09540,0.15573
3101.16681,0.15532
3099.23822,0.15496
3097.30964,0.15456
3095.38105,0.15426
3093.45246,0.15391
3091.52388,0.15358
3089.59529,0.15335
3087.66670,0.15296
3085.73812,0.15239
3083.80953,0.15191
3081.88095,0.15161
3079.95236,0.15130
3078.02377,0.15084
3076.09519,0.15026
3074.16660,0.14971
3072.23801,0.14924
3070.30943,0.14870
3068.38084,0.14821
3066.45225,0.14769
3064.52367,0.14709
3062.59508,0.14648
3060.66650,0.14588
3058.73791,0.14528
3056.80932,0.14460
3054.88074,0.14389
3052.95215,0.14319
3051.02356,0.14252
3049.09498,0.14187
3047.16639,0.14123
3045.23781,0.14059
3043.30922,0.13991
3041.38063,0.13932
3039.45205,0.13882
3037.52346,0.13841
3035.59487,0.13810
3033.66629,0.13766
3031.73770,0.13709
3029.80911,0.13659
3027.88053,0.13620
3025.95194,0.13584
3024.02336,0.13550
3022.09477,0.13525
3020.16618,0.13506
3018.23760,0.13490
3016.30901,0.13477
3014.38042,0.13475
3012.45184,0.13483
3010.52325,0.13495
3008.59467,0.13509
3006.66608,0.13529
3004.73749,0.13573
3002.80891,0.13625
3000.88032,0.13689
2998.95173,0.13762
2997.02315,0.13822
2995.09456,0.13891
2993.16597,0.13981
2991.23739,0.14089
2989.30880,0.14210
2987.38022,0.14341
2985.45163,0.14503
2983.52304,0.14682
2981.59446,0.14855
2979.66587,0.15045
2977.73728,0.15270
2975.80870,0.15498
2973.88011,0.15722
2971.95153,0.15970
2970.02294,0.16240
2968.09435,0.16513
2966.16577,0.16776
2964.23718,0.17048
2962.30859,0.17329
2960.38001,0.17591
2958.45142,0.17830
2956.52283,0.18048
2954.59425,0.18253
2952.66566,0.18453
2950.73708,0.18665
2948.80849,0.18922
2946.87990,0.19243
2944.95132,0.19627
2943.02273,0.20064
2941.09414,0.20550
2939.16556,0.21080
2937.23697,0.21639
2935.30838,0.22209
2933.37980,0.22770
2931.45121,0.23306
2929.52263,0.23798
2927.59404,0.24240
2925.66545,0.24612
2923.73687,0.24864
2921.80828,0.24956
2919.87969,0.24854
2917.95111,0.24460
2916.02252,0.23644
2914.09394,0.22541
2912.16535,0.21475
2910.23676,0.20605
2908.30818,0.19931
2906.37959,0.19393
2904.45100,0.18942
2902.52242,0.18564
2900.59383,0.18226
2898.66524,0.17905
2896.73666,0.17598
2894.80807,0.17291
2892.87949,0.16991
2890.95090,0.16715
2889.02231,0.16454
2887.09373,0.16204
2885.16514,0.15987
2883.23655,0.15813
2881.30797,0.15672
2879.37938,0.15568
2877.45080,0.15507
2875.52221,0.15499
2873.59362,0.15526
2871.66504,0.15552
2869.73645,0.15591
2867.80786,0.15672
2865.87928,0.15828
2863.95069,0.16103
2862.02210,0.16509
2860.09352,0.17057
2858.16493,0.17717
2856.23635,0.18404
2854.30776,0.18990
2852.37917,0.19291
2850.45059,0.19081
2848.52200,0.18233
2846.59341,0.16950
2844.66483,0.15644
2842.73624,0.14533
2840.80766,0.13630
2838.87907,0.12902
2836.95048,0.12315
2835.02190,0.11853
2833.09331,0.11475
2831.16472,0.11147
2829.23614,0.10873
2827.30755,0.10642
2825.37896,0.10436
2823.45038,0.10246
2821.52179,0.10060
2819.59321,0.09894
2817.66462,0.09754
2815.73603,0.09618
2813.80745,0.09479
2811.87886,0.09349
2809.95027,0.09246
2808.02169,0.09148
2806.09310,0.09042
2804.16451,0.08947
2802.23593,0.08857
2800.30734,0.08758
2798.37876,0.08666
2796.45017,0.08591
2794.52158,0.08511
2792.59300,0.08423
2790.66441,0.08357
2788.73582,0.08298
2786.80724,0.08222
2784.87865,0.08145
2782.95007,0.08074
2781.02148,0.08016
2779.09289,0.07967
2777.16431,0.07909
2775.23572,0.07845
2773.30713,0.07783
2771.37855,0.07724
2769.44996,0.07680
2767.52137,0.07637
2765.59279,0.07584
2763.66420,0.07538
2761.73562,0.07497
2759.80703,0.07454
2757.87844,0.07412
2755.94986,0.07368
2754.02127,0.07325
2752.09268,0.07284
2750.16410,0.07242
2748.23551,0.07204
2746.30693,0.07172
2744.37834,0.07145
2742.44975,0.07114
2740.52117,0.07079
2738.59258,0.07051
2736.66399,0.07019
2734.73541,0.06978
2732.80682,0.06931
2730.87823,0.06887
2728.94965,0.06853
2727.02106,0.06817
2725.09248,0.06765
2723.16389,0.06711
2721.23530,0.06672
2719.30672,0.06635
2717.37813,0.06590
2715.44954,0.06548
2713.52096,0.06506
2711.59237,0.06455
2709.66379,0.06404
2707.73520,0.06365
2705.80661,0.06324
2703.87803,0.06283
2701.94944,0.06251
2700.02085,0.06217
2698.09227,0.06177
2696.16368,0.06137
2694.23509,0.06105
2692.30651,0.06077
2690.37792,0.06046
2688.44934,0.06019
2686.52075,0.05995
2684.59216,0.05962
2682.66358,0.05918
2680.73499,0.05883
2678.80640,0.05850
2676.87782,0.05813
2674.94923,0.05774
2673.02064,0.05736
2671.09206,0.05702
2669.16347,0.05664
2667.23489,0.05623
2665.30630,0.05585
2663.37771,0.05549
2661.44913,0.05523
2659.52054,0.05499
2657.59195,0.05477
2655.66337,0.05448
2653.73478,0.05408
2651.80620,0.05372
2649.87761,0.05330
2647.94902,0.05294
2646.02044,0.05281
2644.09185,0.05255
2642.16326,0.05219
2640.23468,0.05188
2638.30609,0.05156
2636.37750,0.05123
2634.44892,0.05091
2632.52033,0.05060
2630.59175,0.05030
2628.66316,0.04993
2626.73457,0.04961
2624.80599,0.04934
2622.87740,0.04895
2620.94881,0.04858
2619.02023,0.04835
2617.09164,0.04810
2615.16306,0.04779
2613.23447,0.04753
2611.30588,0.04726
2609.37730,0.04688
2607.44871,0.04649
2605.52012,0.04620
2603.59154,0.04583
2601.66295,0.04542
2599.73436,0.04520
2597.80578,0.04501
2595.87719,0.04475
2593.94861,0.04446
2592.02002,0.04411
2590.09143,0.04378
2588.16285,0.04346
2586.23426,0.04316
2584.30567,0.04282
2582.37709,0.04244
2580.44850,0.04213
2578.51991,0.04185
2576.59133,0.04166
2574.66274,0.04144
2572.73416,0.04108
2570.80557,0.04078
2568.87698,0.04049
2566.94840,0.04022
2565.01981,0.04001
2563.09122,0.03969
2561.16264,0.03938
2559.23405,0.03913
2557.30547,0.03888
2555.37688,0.03864
2553.44829,0.03833
2551.51971,0.03808
2549.59112,0.03793
2547.66253,0.03769
2545.73395,0.03739
2543.80536,0.03706
2541.87677,0.03675
2539.94819,0.03649
2538.01960,0.03629
2536.09102,0.03605
2534.16243,0.03571
2532.23384,0.03540
2530.30526,0.03520
2528.37667,0.03501
2526.44808,0.03478
2524.51950,0.03457
2522.59091,0.03430
2520.66233,0.03393
2518.73374,0.03362
2516.80515,0.03337
2514.87657,0.03312
2512.94798,0.03290
2511.01939,0.03265
2509.09081,0.03233
2507.16222,0.03194
2505.23363,0.03153
2503.30505,0.03125
2501.37646,0.03101
2499.44788,0.03070
2497.51929,0.03037
2495.59070,0.03008
2493.66212,0.02983
2491.73353,0.02951
2489.80494,0.02917
2487.87636,0.02893
2485.94777,0.02867
2484.01919,0.02835
2482.09060,0.02805
2480.16201,0.02770
2478.23343,0.02734
2476.30484,0.02701
2474.37625,0.02668
2472.44767,0.02634
2470.51908,0.02602
2468.59049,0.02573
2466.66191,0.02541
2464.73332,0.02508
2462.80474,0.02477
2460.87615,0.02450
2458.94756,0.02421
2457.01898,0.02393
2455.09039,0.02365
2453.16180,0.02335
2451.23322,0.02307
2449.30463,0.02275
2447.37604,0.02246
2445.44746,0.02214
2443.51887,0.02172
2441.59029,0.02140
2439.66170,0.02117
2437.73311,0.02086
2435.80453,0.02055
2433.87594,0.02031
2431.94735,0.02003
2430.01877,0.01975
2428.09018,0.01950
2426.16160,0.01920
2424.23301,0.01889
2422.30442,0.01856
2420.37584,0.01834
2418.44725,0.01814
2416.51866,0.01783
2414.59008,0.01755
2412.66149,0.01721
2410.73290,0.01686
2408.80432,0.01665
2406.87573,0.01644
2404.94715,0.01616
2403.01856,0.01588
2401.08997,0.01570
2399.16139,0.01548
2397.23280,0.01525
2395.30421,0.01503
2393.37563,0.01477
2391.44704,0.01452
2389.51846,0.01421
2387.58987,0.01396
2385.66128,0.01374
2383.73270,0.01353
2381.80411,0.01340
2379.87552,0.01323
2377.94694,0.01306
2376.01835,0.01291
2374.08976,0.01273
2372.16118,0.01250
2370.23259,0.01227
2368.30401,0.01212
2366.37542,0.01202
2364.44683,0.01185
2362.51825,0.01148
2360.58966,0.01121
2358.66107,0.01108
2356.73249,0.01087
2354.80390,0.01061
2352.87532,0.01025
2350.94673,0.01005
2349.01814,0.01015
2347.08956,0.01025
2345.16097,0.01022
2343.23238,0.01014
2341.30380,0.01005
2339.37521,0.00992
2337.44662,0.00969
2335.51804,0.00938
2333.58945,0.00911
2331.66087,0.00894
2329.73228,0.00878
2327.80369,0.00858
2325.87511,0.00831
2323.94652,0.00815
2322.01793,0.00805
2320.08935,0.00784
2318.16076,0.00761
2316.23217,0.00744
2314.30359,0.00733
2312.37500,0.00718
2310.44642,0.00702
2308.51783,0.00693
2306.58924,0.00679
2304.66066,0.00663
2302.73207,0.00654
2300.80348,0.00641
2298.87490,0.00619
2296.94631,0.00596
2295.01773,0.00577
2293.08914,0.00568
2291.16055,0.00557
2289.23197,0.00541
2287.30338,0.00530
2285.37479,0.00517
2283.44621,0.00500
2281.51762,0.00485
2279.58903,0.00473
2277.66045,0.00462
2275.73186,0.00451
2273.80328,0.00439
2271.87469,0.00426
2269.94610,0.00408
2268.01752,0.00393
2266.08893,0.00387
2264.16034,0.00376
2262.23176,0.00364
2260.30317,0.00351
2258.37459,0.00337
2256.44600,0.00326
2254.51741,0.00319
2252.58883,0.00312
2250.66024,0.00304
2248.73165,0.00292
2246.80307,0.00277
2244.87448,0.00269
2242.94589,0.00264
2241.01731,0.00250
2239.08872,0.00232
2237.16014,0.00224
2235.23155,0.00219
2233.30296,0.00211
2231.37438,0.00206
2229.44579,0.00195
2227.51720,0.00175
2225.58862,0.00160
2223.66003,0.00157
2221.73145,0.00150
2219.80286,0.00139
2217.87427,0.00129
2215.94569,0.00113
2214.01710,0.00097
2212.08851,0.00089
2210.15993,0.00085
2208.23134,0.00077
2206.30275,0.00065
2204.37417,0.00062
2202.44558,0.00058
2200.51700,0.00050
2198.58841,0.00046
2196.65982,0.00041
2194.73124,0.00041
2192.80265,0.00037
2190.87406,0.00028
2188.94548,0.00028
2187.01689,0.00027
2185.08830,0.00027
2183.15972,0.00022
2181.23113,0.00007
2179.30255,0.00002
2177.37396,0.00008
2175.44537,0.00013
2173.51679,0.00016
2171.58820,0.00008
2169.65961,-0.00002
2167.73103,0.00008
2165.80244,0.00014
2163.87386,0.00009
2161.94527,0.00013
2160.01668,0.00017
2158.08810,0.00017
2156.15951,0.00014
2154.23092,0.00010
2152.30234,0.00010
2150.37375,0.00020
2148.44516,0.00028
2146.51658,0.00017
2144.58799,0.00006
2142.65941,0.00003
2140.73082,0.00001
2138.80223,0.00011
2136.87365,0.00019
2134.94506,0.00015
2133.01647,0.00011
2131.08789,0.00009
2129.15930,0.00014
2127.23072,0.00017
2125.30213,0.00011
2123.37354,0.00007
2121.44496,0.00005
2119.51637,0.00003
2117.58778,0.00002
2115.65920,0.00000
2113.73061,-0.00003
2111.80202,-0.00003
2109.87344,-0.00004
2107.94485,0.00000
2106.01627,0.00006
2104.08768,0.00001
2102.15909,-0.00008
2100.23051,-0.00007
2098.30192,0.00001
2096.37333,0.00003
2094.44475,0.00002
2092.51616,0.00004
2090.58758,0.00007
2088.65899,0.00006
2086.73040,0.00009
2084.80182,0.00009
2082.87323,0.00003
2080.94464,0.00000
2079.01606,-0.00002
2077.08747,0.00002
2075.15888,0.00005
2073.23030,0.00004
2071.30171,0.00006
2069.37313,0.00012
2067.44454,0.00013
2065.51595,0.00009
2063.58737,0.00009
2061.65878,0.00008
2059.73019,0.00011
2057.80161,0.00021
2055.87302,0.00031
2053.94443,0.00035
2052.01585,0.00034
2050.08726,0.00044
2048.15868,0.00054
2046.23009,0.00063
2044.30150,0.00074
2042.37292,0.00090
2040.44433,0.00118
2038.51574,0.00140
2036.58716,0.00161
2034.65857,0.00186
2032.72999,0.00203
2030.80140,0.00213
2028.87281,0.00215
2026.94423,0.00219
2025.01564,0.00226
2023.08705,0.00231
2021.15847,0.00236
2019.22988,0.00244
2017.30129,0.00254
2015.37271,0.00262
2013.44412,0.00280
2011.51554,0.00307
2009.58695,0.00328
2007.65836,0.00340
2005.72978,0.00349
2003.80119,0.00355
2001.87260,0.00358
1999.94402,0.00367
1998.01543,0.00365
1996.08685,0.00352
1994.15826,0.00352
1992.22967,0.00353
1990.30109,0.00341
1988.37250,0.00325
1986.44391,0.00318
1984.51533,0.00313
1982.58674,0.00304
1980.65815,0.00296
1978.72957,0.00285
1976.80098,0.00273
1974.87240,0.00255
1972.94381,0.00238
1971.01522,0.00230
1969.08664,0.00219
1967.15805,0.00200
1965.22946,0.00175
1963.30088,0.00149
1961.37229,0.00131
1959.44371,0.00120
1957.51512,0.00108
1955.58653,0.00097
1953.65795,0.00090
1951.72936,0.00091
1949.80077,0.00090
1947.87219,0.00081
1945.94360,0.00071
1944.01501,0.00061
1942.08643,0.00038
1940.15784,0.00022
1938.22926,0.00016
1936.30067,0.00009
1934.37208,0.00010
1932.44350,0.00006
1930.51491,0.00001
1928.58632,-0.00004
1926.65774,-0.00010
1924.72915,0.00000
1922.80056,0.00003
1920.87198,0.00010
1918.94339,0.00026
1917.01481,0.00035
1915.08622,0.00057
1913.15763,0.00089
1911.22905,0.00124
1909.30046,0.00169
1907.37187,0.00220
1905.44329,0.00276
1903.51470,0.00326
1901.58612,0.00369
1899.65753,0.00416
1897.72894,0.00466
1895.80036,0.00517
1893.87177,0.00561
1891.94318,0.00616
1890.01460,0.00665
1888.08601,0.00684
1886.15742,0.00707
1884.22884,0.00738
1882.30025,0.00760
1880.37167,0.00770
1878.44308,0.00774
1876.51449,0.00787
1874.58591,0.00802
1872.65732,0.00817
1870.72873,0.00822
1868.80015,0.00800
1866.87156,0.00757
1864.94298,0.00719
1863.01439,0.00676
1861.08580,0.00621
1859.15722,0.00556
1857.22863,0.00474
1855.30004,0.00405
1853.37146,0.00333
1851.44287,0.00257
1849.51428,0.00192
1847.58570,0.00134
1845.65711,0.00102
1843.72853,0.00050
1841.79994,0.00000
1839.87135,-0.00020
1837.94277,-0.00043
1836.01418,-0.00063
1834.08559,-0.00068
1832.15701,-0.00055
1830.22842,-0.00046
1828.29984,-0.00037
1826.37125,-0.00007
1824.44266,0.00019
1822.51408,0.00061
1820.58549,0.00116
1818.65690,0.00162
1816.72832,0.00218
1814.79973,0.00291
1812.87114,0.00379
1810.94256,0.00476
1809.01397,0.00582
1807.08539,0.00698
1805.15680,0.00827
1803.22821,0.00984
1801.29963,0.01142
1799.37104,0.01295
1797.44245,0.01471
1795.51387,0.01673
1793.58528,0.01890
1791.65669,0.02089
1789.72811,0.02291
1787.79952,0.02536
1785.87094,0.02779
1783.94235,0.03015
1782.01376,0.03257
1780.08518,0.03498
1778.15659,0.03730
1776.22800,0.03949
1774.29942,0.04187
1772.37083,0.04396
1770.44225,0.04580
1768.51366,0.04790
1766.58507,0.04980
1764.65649,0.05191
1762.72790,0.05425
1760.79931,0.05638
1758.87073,0.05880
1756.94214,0.06141
1755.01355,0.06421
1753.08497,0.06753
1751.15638,0.07105
1749.22780,0.07467
1747.29921,0.07880
1745.37062,0.08329
1743.44204,0.08802
1741.51345,0.09298
1739.58486,0.09769
1737.65628,0.10210
1735.72769,0.10641
1733.79911,0.10963
1731.87052,0.11226
1729.94193,0.11552
1728.01335,0.11846
1726.08476,0.12128
1724.15617,0.12425
1722.22759,0.12730
1720.29900,0.13078
1718.37041,0.13393
1716.44183,0.13643
1714.51324,0.13889
1712.58466,0.14151
1710.65607,0.14390
1708.72748,0.14599
1706.79890,0.14810
1704.87031,0.14996
1702.94172,0.15236
1701.01314,0.15485
1699.08455,0.15671
1697.15596,0.15936
1695.22738,0.16171
1693.29879,0.16382
1691.37021,0.16672
1689.44162,0.16925
1687.51303,0.17215
1685.58445,0.17521
1683.65586,0.17730
1681.72727,0.17976
1679.79869,0.18262
1677.87010,0.18550
1675.94152,0.18815
1674.01293,0.19043
1672.08434,0.19291
1670.15576,0.19511
1668.22717,0.19684
1666.29858,0.19861
1664.37000,0.20044
1662.44141,0.20174
1660.51282,0.20265
1658.58424,0.20347
1656.65565,0.20430
1654.72707,0.20527
1652.79848,0.20464
1650.86989,0.20382
1648.94131,0.20452
1647.01272,0.20464
1645.08413,0.20414
1643.15555,0.20401
1641.22696,0.20420
1639.29838,0.20456
1637.36979,0.20503
1635.44120,0.20485
1633.51262,0.20438
1631.58403,0.20441
1629.65544,0.20378
1627.72686,0.20264
1625.79827,0.20116
1623.86968,0.19925
1621.94110,0.19709
1620.01251,0.19524
1618.08393,0.19374
1616.15534,0.19128
1614.22675,0.18907
1612.29817,0.18749
1610.36958,0.18570
1608.44099,0.18405
1606.51241,0.18264
1604.58382,0.18139
1602.65524,0.17996
1600.72665,0.17854
1598.79806,0.17704
1596.86948,0.17552
1594.94089,0.17405
1593.01230,0.17246
1591.08372,0.17077
1589.15513,0.16879
1587.22654,0.16682
1585.29796,0.16477
1583.36937,0.16269
1581.44079,0.16049
1579.51220,0.15854
1577.58361,0.15703
1575.65503,0.15480
1573.72644,0.15294
1571.79785,0.15205
1569.86927,0.15104
1567.94068,0.15007
1566.01209,0.14948
1564.08351,0.14899
1562.15492,0.14915
1560.22634,0.14954
1558.29775,0.14877
1556.36916,0.14839
1554.44058,0.14842
1552.51199,0.14814
1550.58340,0.14816
1548.65482,0.14783
1546.72623,0.14765
1544.79765,0.14750
1542.86906,0.14714
1540.94047,0.14666
1539.01189,0.14496
1537.08330,0.14364
1535.15471,0.14308
1533.22613,0.14201
1531.29754,0.14061
1529.36895,0.13950
1527.44037,0.13849
1525.51178,0.13722
1523.58320,0.13651
1521.65461,0.13605
1519.72602,0.13559
1517.79744,0.13556
1515.86885,0.13498
1513.94026,0.13348
1512.01168,0.13129
1510.08309,0.12898
1508.15451,0.12673
1506.22592,0.12306
1504.29733,0.11880
1502.36875,0.11525
1500.44016,0.11162
1498.51157,0.10800
1496.58299,0.10429
1494.65440,0.10055
1492.72581,0.09775
1490.79723,0.09541
1488.86864,0.09324
1486.94006,0.09166
1485.01147,0.09061
1483.08288,0.09028
1481.15430,0.09076
1479.22571,0.09211
1477.29712,0.09443
1475.36854,0.09785
1473.43995,0.10281
1471.51137,0.10887
1469.58278,0.11537
1467.65419,0.12105
1465.72561,0.12428
1463.79702,0.12562
1461.86843,0.12627
1459.93985,0.12713
1458.01126,0.12825
1456.08267,0.12849
1454.15409,0.12840
1452.22550,0.12825
1450.29692,0.12788
1448.36833,0.12756
1446.43974,0.12697
1444.51116,0.12649
1442.58257,0.12617
1440.65398,0.12597
1438.72540,0.12619
1436.79681,0.12613
1434.86822,0.12583
1432.93964,0.12597
1431.01105,0.12614
1429.08247,0.12610
1427.15388,0.12622
1425.22529,0.12652
1423.29671,0.12692
1421.36812,0.12746
1419.43953,0.12764
1417.51095,0.12736
1415.58236,0.12720
1413.65378,0.12691
1411.72519,0.12648
1409.79660,0.12600
1407.86802,0.12527
1405.93943,0.12454
1404.01084,0.12376
1402.08226,0.12302
1400.15367,0.12221
1398.22508,0.12116
1396.29650,0.12016
1394.36791,0.11915
1392.43933,0.11836
1390.51074,0.11808
1388.58215,0.11796
1386.65357,0.11747
1384.72498,0.11700
1382.79639,0.11740
1380.86781,0.11833
1378.93922,0.11894
1377.01064,0.11884
1375.08205,0.11822
1373.15346,0.11727
1371.22488,0.11608
1369.29629,0.11477
1367.36770,0.11332
1365.43912,0.11190
1363.51053,0.11057
1361.58194,0.10917
1359.65336,0.10795
1357.72477,0.10701
1355.79619,0.10601
1353.86760,0.10503
1351.93901,0.10422
1350.01043,0.10343
1348.08184,0.10275
1346.15325,0.10212
1344.22467,0.10143
1342.29608,0.10089
1340.36750,0.10047
1338.43891,0.09988
1336.51032,0.09918
1334.58174,0.09858
1332.65315,0.09815
1330.72456,0.09792
1328.79598,0.09759
1326.86739,0.09710
1324.93880,0.09665
1323.01022,0.09623
1321.08163,0.09579
1319.15305,0.09537
1317.22446,0.09499
1315.29587,0.09468
1313.36729,0.09442
1311.43870,0.09410
1309.51011,0.09378
1307.58153,0.09353
1305.65294,0.09328
1303.72435,0.09309
1301.79577,0.09289
1299.86718,0.09281
1297.93860,0.09296
1296.01001,0.09321
1294.08142,0.09358
1292.15284,0.09417
1290.22425,0.09504
1288.29566,0.09606
1286.36708,0.09737
1284.43849,0.09900
1282.50991,0.10066
1280.58132,0.10238
1278.65273,0.10420
1276.72415,0.10605
1274.79556,0.10783
1272.86697,0.10971
1270.93839,0.11171
1269.00980,0.11377
1267.08121,0.11600
1265.15263,0.11828
1263.22404,0.12075
1261.29546,0.12366
1259.36687,0.12709
1257.43828,0.13110
1255.50970,0.13553
1253.58111,0.14031
1251.65252,0.14536
1249.72394,0.15056
1247.79535,0.15581
1245.86677,0.16101
1243.93818,0.16594
1242.00959,0.17039
1240.08101,0.17444
1238.15242,0.17819
1236.22383,0.18175
1234.29525,0.18510
1232.36666,0.18822
1230.43807,0.19100
1228.50949,0.19333
1226.58090,0.19564
1224.65232,0.19798
1222.72373,0.20024
1220.79514,0.20252
1218.86656,0.20465
1216.93797,0.20661
1215.00938,0.20842
1213.08080,0.21031
1211.15221,0.21241
1209.22363,0.21428
1207.29504,0.21600
1205.36645,0.21780
1203.43787,0.21951
1201.50928,0.22119
1199.58069,0.22280
1197.65211,0.22411
1195.72352,0.22543
1193.79493,0.22697
1191.86635,0.22843
1189.93776,0.22981
1188.00918,0.23120
1186.08059,0.23265
1184.15200,0.23452
1182.22342,0.23665
1180.29483,0.23874
1178.36624,0.24111
1176.43766,0.24352
1174.50907,0.24593
1172.58048,0.24865
1170.65190,0.25160
1168.72331,0.25461
1166.79473,0.25745
1164.86614,0.26024
1162.93755,0.26273
1161.00897,0.26444
1159.08038,0.26566
1157.15179,0.26661
1155.22321,0.26747
1153.29462,0.26876
1151.36604,0.27070
1149.43745,0.27262
1147.50886,0.27439
1145.58028,0.27660
1143.65169,0.27918
1141.72310,0.28200
1139.79452,0.28500
1137.86593,0.28823
1135.93734,0.29200
1134.00876,0.29606
1132.08017,0.29986
1130.15159,0.30358
1128.22300,0.30815
1126.29441,0.31376
1124.36583,0.31930
1122.43724,0.32461
1120.50865,0.33029
1118.58007,0.33611
1116.65148,0.34202
1114.72290,0.34823
1112.79431,0.35476
1110.86572,0.36113
1108.93714,0.36697
1107.00855,0.37284
1105.07996,0.37794
1103.15138,0.38156
1101.22279,0.38439
1099.29420,0.38666
1097.36562,0.38835
1095.43703,0.38955
1093.50845,0.39002
1091.57986,0.38946
1089.65127,0.38851
1087.72269,0.38763
1085.79410,0.38662
1083.86551,0.38507
1081.93693,0.38314
1080.00834,0.38151
1078.07976,0.37976
1076.15117,0.37785
1074.22258,0.37607
1072.29400,0.37409
1070.36541,0.37224
1068.43682,0.37068
1066.50824,0.36935
1064.57965,0.36850
1062.65106,0.36718
1060.72248,0.36480
1058.79389,0.36246
1056.86531,0.36017
1054.93672,0.35761
1053.00813,0.35523
1051.07955,0.35293
1049.15096,0.35129
1047.22237,0.35066
1045.29379,0.35057
1043.36520,0.35091
1041.43661,0.35155
1039.50803,0.35226
1037.57944,0.35285
1035.65086,0.35322
1033.72227,0.35301
1031.79368,0.35195
1029.86510,0.35010
1027.93651,0.34730
1026.00792,0.34377
1024.07934,0.34023
1022.15075,0.33691
1020.22217,0.33373
1018.29358,0.33073
1016.36499,0.32739
1014.43641,0.32360
1012.50782,0.32009
1010.57923,0.31679
1008.65065,0.31331
1006.72206,0.30941
1004.79347,0.30504
1002.86489,0.30047
1000.93630,0.29561
999.00772,0.29034
997.07913,0.28491
995.15054,0.27934
993.22196,0.27362
991.29337,0.26786
989.36478,0.26173
987.43620,0.25529
985.50761,0.24868
983.57903,0.24133
981.65044,0.23345
979.72185,0.22512
977.79327,0.21633
975.86468,0.20723
973.93609,0.19785
972.00751,0.18882
970.07892,0.18024
968.15033,0.17167
966.22175,0.16351
964.29316,0.15631
962.36458,0.14976
960.43599,0.14354
958.50740,0.13780
956.57882,0.13294
954.65023,0.12907
952.72164,0.12543
950.79306,0.12200
948.86447,0.11917
946.93589,0.11674
945.00730,0.11481
943.07871,0.11315
941.15013,0.11144
939.22154,0.10968
937.29295,0.10810
935.36437,0.10691
933.43578,0.10561
931.50719,0.10417
929.57861,0.10293
927.65002,0.10156
925.72144,0.10029
923.79285,0.09955
921.86426,0.09907
919.93568,0.09878
918.00709,0.09836
916.07850,0.09768
914.14992,0.09679
912.22133,0.09501
910.29274,0.09228
908.36416,0.08881
906.43557,0.08424
904.50699,0.07833
902.57840,0.07208
900.64981,0.06651
898.72123,0.06127
896.79264,0.05652
894.86405,0.05205
892.93547,0.04779
891.00688,0.04432
889.07830,0.04100
887.14971,0.03782
885.22112,0.03469
883.29254,0.03158
881.36395,0.02854
879.43536,0.02564
877.50678,0.02314
875.57819,0.02015
873.64960,0.01713
871.72102,0.01450
869.79243,0.01183
867.86385,0.00932
865.93526,0.00706
864.00667,0.00507
862.07809,0.00300
860.14950,0.00155
858.22091,0.00073
856.29233,0.00000
854.36374,-0.00029
852.43516,-0.00037
850.50657,-0.00010
848.57798,0.00066
846.64940,0.00191
844.72081,0.00341
842.79222,0.00526
840.86364,0.00845
838.93505,0.01209
837.00646,0.01544
835.07788,0.01887
833.14929,0.02238
831.22071,0.02500
829.29212,0.02609
827.36353,0.02707
825.43495,0.02808
823.50636,0.02900
821.57777,0.03054
819.64919,0.03176
817.72060,0.03272
815.79201,0.03479
813.86343,0.03725
811.93484,0.03938
810.00626,0.04287
808.07767,0.04837
806.14908,0.05505
804.22050,0.06146
802.29191,0.06633
800.36332,0.06918
798.43474,0.06857
796.50615,0.06461
794.57757,0.05960
792.64898,0.05505
790.72039,0.05146
788.79181,0.04932
786.86322,0.04841
784.93463,0.04792
783.00605,0.04836
781.07746,0.04917
779.14887,0.04761
777.22029,0.04316
775.29170,0.03782
773.36312,0.03232
771.43453,0.02736
769.50594,0.02410
767.57736,0.02225
765.64877,0.02140
763.72018,0.02093
761.79160,0.02056
759.86301,0.02070
757.93443,0.02085
756.00584,0.02044
754.07725,0.01969
752.14867,0.01949
750.22008,0.01920
748.29149,0.01803
746.36291,0.01679
744.43432,0.01498
742.50573,0.01251
740.57715,0.01013
738.64856,0.00774
736.71998,0.00556
734.79139,0.00421
732.86280,0.00349
730.93422,0.00290
729.00563,0.00306
727.07704,0.00378
725.14846,0.00377
723.21987,0.00370
721.29129,0.00440
719.36270,0.00403
717.43411,0.00234
715.50553,0.00102
713.57694,0.00000
711.64835,0.00004
709.71977,0.00100
707.79118,0.00158
705.86259,0.00303
703.93401,0.00572
702.00542,0.00924
700.07684,0.01328
698.14825,0.01769
696.21966,0.02119
694.29108,0.02070
692.36249,0.01704
690.43390,0.01283
688.50532,0.00989
686.57673,0.00869
684.64814,0.00736
682.71956,0.00596
680.79097,0.00522
678.86239,0.00459
676.93380,0.00402
675.00521,0.00336
673.07663,0.00270
671.14804,0.00251
669.21945,0.00212
667.29087,0.00079
665.36228,0.00000
663.43370,-0.00001
661.50511,0.00007
659.57652,0.00044
657.64794,0.00086
655.71935,0.00075
653.79076,0.00094
651.86218,0.00164
649.93359,0.00159
648.00500,0.00151
646.07642,0.00238
644.14783,0.00367
642.21925,0.00365
640.29066,0.00263
638.36207,0.00351
636.43349,0.00446
634.50490,0.00420
632.57631,0.00476
630.64773,0.00525
628.71914,0.00537
626.79056,0.00606
624.86197,0.00726
622.93338,0.00824
621.00480,0.00916
619.07621,0.00994
617.14762,0.01075
615.21904,0.01180
613.29045,0.01197
611.36186,0.01277
609.43328,0.01304
607.50469,0.01249
605.57611,0.01426
603.64752,0.01589
601.71893,0.01703
599.79035,0.01953
597.86176,0.02188
595.93317,0.02345
594.00459,0.02543
592.07600,0.02868
590.14742,0.03194
588.21883,0.03523
586.29024,0.03830
584.36166,0.04081
582.43307,0.04500
580.50448,0.05018
578.57590,0.05438
576.64731,0.05823
574.71872,0.06240
572.79014,0.06611
570.86155,0.06963
568.93297,0.07459
567.00438,0.08022
565.07579,0.08390
563.14721,0.08703
561.21862,0.09287
559.29003,0.09918
557.36145,0.10389
555.43286,0.10854
553.50427,0.11258
551.57569,0.11459
549.64710,0.11579
547.71852,0.11945
545.78993,0.12499
543.86134,0.12833
541.93276,0.13150
540.00417,0.13732
538.07558,0.14245
536.14700,0.14786
534.21841,0.15459
532.28983,0.15692
530.36124,0.15636
528.43265,0.15670
526.50407,0.15531
524.57548,0.15308
522.64689,0.15132
520.71831,0.14804
518.78972,0.14319
516.86113,0.13727
514.93255,0.13212
513.00396,0.12769
511.07538,0.12461
509.14679,0.12400
507.21820,0.12165
505.28962,0.12084
503.36103,0.12246
501.43244,0.12183
499.50386,0.12487
497.57527,0.13247
495.64669,0.14102
493.71810,0.14977
491.78951,0.15935
489.86093,0.17060
487.93234,0.17831
486.00375,0.18664
484.07517,0.20017
482.14658,0.21271
480.21799,0.22417
478.28941,0.23528
476.36082,0.24326
474.43224,0.24729
472.50365,0.24751
470.57506,0.24505
468.64648,0.24062
466.71789,0.23202
464.78930,0.22092
462.86072,0.21044
460.93213,0.19989
459.00355,0.18666
457.07496,0.17102
455.14637,0.15654
453.21779,0.14367
451.28920,0.13420
449.36061,0.12834
447.43203,0.12016
445.50344,0.10867
443.57485,0.10246
441.64627,0.09908
439.71768,0.09410
437.78910,0.09256
435.86051,0.08962
433.93192,0.08684
432.00334,0.08385
430.07475,0.07919
428.14616,0.07663
426.21758,0.06891
424.28899,0.06042
422.36040,0.05310
420.43182,0.05139
418.50323,0.05265
416.57465,0.04471
414.64606,0.03826
412.71747,0.03066
410.78889,0.02257
408.86030,0.01220
406.93171,0.00000
405.00313,-0.00246
403.07454,-0.00085
401.14596,0.00316
399.21737,0.00000
