3747.24323,0.00228
3745.31464,0.00695
3743.38605,0.00028
3741.45747,0.00000
3739.52888,0.00641
3737.60030,0.00889
3735.67171,0.00719
3733.74312,0.00527
3731.81454,0.00523
3729.88595,0.00628
3727.95736,0.00967
3726.02878,0.01064
3724.10019,0.00972
3722.17161,0.01151
3720.24302,0.01189
3718.31443,0.01363
3716.38585,0.01578
3714.45726,0.01928
3712.52867,0.02210
3710.60009,0.01966
3708.67150,0.02144
3706.74291,0.02468
3704.81433,0.02903
3702.88574,0.03261
3700.95716,0.03228
3699.02857,0.03420
3697.09998,0.03596
3695.17140,0.03746
3693.24281,0.03874
3691.31422,0.04057
3689.38564,0.04049
3687.45705,0.03730
3685.52846,0.03970
3683.59988,0.04406
3681.67129,0.04791
3679.74271,0.05055
3677.81412,0.05519
3675.88553,0.05720
3673.95695,0.05390
3672.02836,0.06053
3670.09977,0.06394
3668.17119,0.06239
3666.24260,0.06715
3664.31402,0.07146
3662.38543,0.07498
3660.45684,0.07752
3658.52826,0.08144
3656.59967,0.08332
3654.67108,0.08254
3652.74250,0.08797
3650.81391,0.09187
3648.88532,0.08947
3646.95674,0.08795
3645.02815,0.09105
3643.09957,0.09544
3641.17098,0.09776
3639.24239,0.09957
3637.31381,0.10143
3635.38522,0.10382
3633.45663,0.10511
3631.52805,0.10839
3629.59946,0.11077
3627.67088,0.10546
3625.74229,0.10673
3623.81370,0.11104
3621.88512,0.11333
3619.95653,0.11393
3618.02794,0.11015
3616.09936,0.11028
3614.17077,0.11182
3612.24218,0.11096
3610.31360,0.11130
3608.38501,0.11036
3606.45643,0.10932
3604.52784,0.11069
3602.59925,0.11204
3600.67067,0.11188
3598.74208,0.11194
3596.81349,0.11277
3594.88491,0.11299
3592.95632,0.11251
3591.02774,0.11369
3589.09915,0.11560
3587.17056,0.11395
3585.24198,0.11286
3583.31339,0.11494
3581.38480,0.11668
3579.45622,0.11778
3577.52763,0.11868
3575.59904,0.11966
3573.67046,0.12038
3571.74187,0.12151
3569.81329,0.12381
3567.88470,0.12441
3565.95611,0.12275
3564.02753,0.12335
3562.09894,0.12564
3560.17035,0.12682
3558.24177,0.12808
3556.31318,0.12976
3554.38459,0.13119
3552.45601,0.13194
3550.52742,0.13246
3548.59884,0.13428
3546.67025,0.13534
3544.74166,0.13544
3542.81308,0.13638
3540.88449,0.13754
3538.95590,0.13905
3537.02732,0.14023
3535.09873,0.14085
3533.17015,0.14181
3531.24156,0.14306
3529.31297,0.14380
3527.38439,0.14434
3525.45580,0.14558
3523.52721,0.14643
3521.59863,0.14710
3519.67004,0.14829
3517.74145,0.14932
3515.81287,0.15017
3513.88428,0.15107
3511.95570,0.15202
3510.02711,0.15268
3508.09852,0.15312
3506.16994,0.15419
3504.24135,0.15547
3502.31276,0.15590
3500.38418,0.15646
3498.45559,0.15762
3496.52701,0.15852
3494.59842,0.15922
3492.66983,0.15996
3490.74125,0.16084
3488.81266,0.16154
3486.88407,0.16220
3484.95549,0.16310
3483.02690,0.16388
3481.09831,0.16445
3479.16973,0.16498
3477.24114,0.16573
3475.31256,0.16642
3473.38397,0.16711
3471.45538,0.16769
3469.52680,0.16825
3467.59821,0.16893
3465.66962,0.16937
3463.74104,0.17013
3461.81245,0.17061
3459.88386,0.17085
3457.95528,0.17142
3456.02669,0.17194
3454.09811,0.17272
3452.16952,0.17323
3450.24093,0.17370
3448.31235,0.17427
3446.38376,0.17450
3444.45517,0.17509
3442.52659,0.17571
3440.59800,0.17611
3438.66942,0.17648
3436.74083,0.17681
3434.81224,0.17718
3432.88366,0.17756
3430.95507,0.17802
3429.02648,0.17861
3427.09790,0.17908
3425.16931,0.17944
3423.24072,0.18005
3421.31214,0.18033
3419.38355,0.18015
3417.45497,0.18051
3415.52638,0.18133
3413.59779,0.18179
3411.66921,0.18186
3409.74062,0.18226
3407.81203,0.18275
3405.88345,0.18310
3403.95486,0.18349
3402.02628,0.18369
3400.09769,0.18390
3398.16910,0.18410
3396.24052,0.18433
3394.31193,0.18466
3392.38334,0.18479
3390.45476,0.18504
3388.52617,0.18544
3386.59758,0.18590
3384.66900,0.18631
3382.74041,0.18630
3380.81183,0.18638
3378.88324,0.18686
3376.95465,0.18716
3375.02607,0.18728
3373.09748,0.18758
3371.16889,0.18798
3369.24031,0.18820
3367.31172,0.18821
3365.38314,0.18824
3363.45455,0.18846
3361.52596,0.18876
3359.59738,0.18900
3357.66879,0.18927
3355.74020,0.18946
3353.81162,0.18957
3351.88303,0.18973
3349.95444,0.18999
3348.02586,0.19035
3346.09727,0.19056
3344.16869,0.19061
3342.24010,0.19061
3340.31151,0.19063
3338.38293,0.19078
3336.45434,0.19093
3334.52575,0.19103
3332.59717,0.19119
3330.66858,0.19141
3328.73999,0.19154
3326.81141,0.19136
3324.88282,0.19111
3322.95424,0.19132
3321.02565,0.19161
3319.09706,0.19149
3317.16848,0.19128
3315.23989,0.19128
3313.31130,0.19161
3311.38272,0.19182
3309.45413,0.19153
3307.52555,0.19131
3305.59696,0.19132
3303.66837,0.19132
3301.73979,0.19135
3299.81120,0.19153
3297.88261,0.19152
3295.95403,0.19109
3294.02544,0.19085
3292.09685,0.19083
3290.16827,0.19077
3288.23968,0.19059
3286.31110,0.19011
3284.38251,0.18975
3282.45392,0.18951
3280.52534,0.18917
3278.59675,0.18885
3276.66816,0.18833
3274.73958,0.18764
3272.81099,0.18706
3270.88241,0.18659
3268.95382,0.18602
3267.02523,0.18537
3265.09665,0.18466
3263.16806,0.18387
3261.23947,0.18326
3259.31089,0.18267
3257.38230,0.18197
3255.45371,0.18105
3253.52513,0.17991
3251.59654,0.17912
3249.66796,0.17863
3247.73937,0.17803
3245.81078,0.17719
3243.88220,0.17640
3241.95361,0.17599
3240.02502,0.17545
3238.09644,0.17468
3236.16785,0.17391
3234.23927,0.17316
3232.31068,0.17253
3230.38209,0.17205
3228.45351,0.17151
3226.52492,0.17089
3224.59633,0.17050
3222.66775,0.16993
3220.73916,0.16906
3218.81057,0.16828
3216.88199,0.16768
3214.95340,0.16711
3213.02482,0.16648
3211.09623,0.16593
3209.16764,0.16531
3207.23906,0.16464
3205.31047,0.16407
3203.38188,0.16340
3201.45330,0.16271
3199.52471,0.16216
3197.59612,0.16153
3195.66754,0.16074
3193.73895,0.16017
3191.81037,0.15950
3189.88178,0.15862
3187.95319,0.15794
3186.02461,0.15725
3184.09602,0.15660
3182.16743,0.15593
3180.23885,0.15527
3178.31026,0.15469
3176.38168,0.15394
3174.45309,0.15317
3172.52450,0.15243
3170.59592,0.15168
3168.66733,0.15094
3166.73874,0.15024
3164.81016,0.14966
3162.88157,0.14905
3160.95298,0.14847
3159.02440,0.14785
3157.09581,0.14698
3155.16723,0.14624
3153.23864,0.14588
3151.31005,0.14544
3149.38147,0.14472
3147.45288,0.14390
3145.52429,0.14331
3143.59571,0.14288
3141.66712,0.14213
3139.73854,0.14143
3137.80995,0.14091
3135.88136,0.14031
3133.95278,0.13974
3132.02419,0.13924
3130.09560,0.13891
3128.16702,0.13852
3126.23843,0.13807
3124.30984,0.13771
3122.38126,0.13723
3120.45267,0.13677
3118.52409,0.13648
3116.59550,0.13606
3114.66691,0.13555
3112.73833,0.13522
3110.80974,0.13494
3108.88115,0.13471
3106.95257,0.13439
3105.02398,0.13395
3103.09540,0.13373
3101.16681,0.13334
3099.23822,0.13282
3097.30964,0.13249
3095.38105,0.13229
3093.45246,0.13211
3091.52388,0.13174
3089.59529,0.13127
3087.66670,0.13082
3085.73812,0.13039
3083.80953,0.13006
3081.88095,0.12975
3079.95236,0.12940
3078.02377,0.12899
3076.09519,0.12867
3074.16660,0.12837
3072.23801,0.12785
3070.30943,0.12726
3068.38084,0.12682
3066.45225,0.12644
3064.52367,0.12583
3062.59508,0.12532
3060.66650,0.12500
3058.73791,0.12442
3056.80932,0.12376
3054.88074,0.12310
3052.95215,0.12235
3051.02356,0.12181
3049.09498,0.12127
3047.16639,0.12069
3045.23781,0.12022
3043.30922,0.11955
3041.38063,0.11893
3039.45205,0.11866
3037.52346,0.11826
3035.59487,0.11772
3033.66629,0.11735
3031.73770,0.11694
3029.80911,0.11636
3027.88053,0.11595
3025.95194,0.11572
3024.02336,0.11548
3022.09477,0.11523
3020.16618,0.11488
3018.23760,0.11465
3016.30901,0.11462
3014.38042,0.11454
3012.45184,0.11431
3010.52325,0.11419
3008.59467,0.11435
3006.66608,0.11462
3004.73749,0.11492
3002.80891,0.11508
3000.88032,0.11530
2998.95173,0.11583
2997.02315,0.11643
2995.09456,0.11695
2993.16597,0.11756
2991.23739,0.11855
2989.30880,0.11964
2987.38022,0.12063
2985.45163,0.12185
2983.52304,0.12319
2981.59446,0.12468
2979.66587,0.12628
2977.73728,0.12786
2975.80870,0.12957
2973.88011,0.13119
2971.95153,0.13266
2970.02294,0.13418
2968.09435,0.13585
2966.16577,0.13766
2964.23718,0.13953
2962.30859,0.14143
2960.38001,0.14335
2958.45142,0.14514
2956.52283,0.14680
2954.59425,0.14851
2952.66566,0.15023
2950.73708,0.15187
2948.80849,0.15372
2946.87990,0.15604
2944.95132,0.15867
2943.02273,0.16162
2941.09414,0.16505
2939.16556,0.16870
2937.23697,0.17226
2935.30838,0.17580
2933.37980,0.17934
2931.45121,0.18266
2929.52263,0.18562
2927.59404,0.18817
2925.66545,0.19016
2923.73687,0.19153
2921.80828,0.19238
2919.87969,0.19229
2917.95111,0.19007
2916.02252,0.18504
2914.09394,0.17807
2912.16535,0.17096
2910.23676,0.16504
2908.30818,0.16050
2906.37959,0.15688
2904.45100,0.15372
2902.52242,0.15097
2900.59383,0.14857
2898.66524,0.14630
2896.73666,0.14405
2894.80807,0.14174
2892.87949,0.13953
2890.95090,0.13750
2889.02231,0.13558
2887.09373,0.13379
2885.16514,0.13213
2883.23655,0.13064
2881.30797,0.12946
2879.37938,0.12871
2877.45080,0.12833
2875.52221,0.12837
2873.59362,0.12865
2871.66504,0.12893
2869.73645,0.12920
2867.80786,0.12965
2865.87928,0.13065
2863.95069,0.13228
2862.02210,0.13492
2860.09352,0.13903
2858.16493,0.14383
2856.23635,0.14853
2854.30776,0.15227
2852.37917,0.15376
2850.45059,0.15194
2848.52200,0.14617
2846.59341,0.13760
2844.66483,0.12856
2842.73624,0.12035
2840.80766,0.11330
2838.87907,0.10765
2836.95048,0.10315
2835.02190,0.09948
2833.09331,0.09644
2831.16472,0.09383
2829.23614,0.09179
2827.30755,0.09000
2825.37896,0.08826
2823.45038,0.08674
2821.52179,0.08528
2819.59321,0.08397
2817.66462,0.08286
2815.73603,0.08181
2813.80745,0.08070
2811.87886,0.07966
2809.95027,0.07888
2808.02169,0.07805
2806.09310,0.07704
2804.16451,0.07609
2802.23593,0.07525
2800.30734,0.07448
2798.37876,0.07386
2796.45017,0.07327
2794.52158,0.07252
2792.59300,0.07174
2790.66441,0.07104
2788.73582,0.07044
2786.80724,0.06994
2784.87865,0.06946
2782.95007,0.06890
2781.02148,0.06832
2779.09289,0.06773
2777.16431,0.06712
2775.23572,0.06662
2773.30713,0.06627
2771.37855,0.06586
2769.44996,0.06534
2767.52137,0.06495
2765.59279,0.06461
2763.66420,0.06413
2761.73562,0.06371
2759.80703,0.06344
2757.87844,0.06323
2755.94986,0.06300
2754.02127,0.06267
2752.09268,0.06233
2750.16410,0.06185
2748.23551,0.06138
2746.30693,0.06115
2744.37834,0.06096
2742.44975,0.06061
2740.52117,0.06035
2738.59258,0.06010
2736.66399,0.05968
2734.73541,0.05928
2732.80682,0.05901
2730.87823,0.05878
2728.94965,0.05848
2727.02106,0.05812
2725.09248,0.05770
2723.16389,0.05723
2721.23530,0.05689
2719.30672,0.05655
2717.37813,0.05627
2715.44954,0.05594
2713.52096,0.05543
2711.59237,0.05509
2709.66379,0.05479
2707.73520,0.05436
2705.80661,0.05394
2703.87803,0.05374
2701.94944,0.05345
2700.02085,0.05295
2698.09227,0.05269
2696.16368,0.05239
2694.23509,0.05195
2692.30651,0.05173
2690.37792,0.05162
2688.44934,0.05135
2686.52075,0.05095
2684.59216,0.05062
2682.66358,0.05033
2680.73499,0.05017
2678.80640,0.04993
2676.87782,0.04956
2674.94923,0.04932
2673.02064,0.04896
2671.09206,0.04858
2669.16347,0.04830
2667.23489,0.04795
2665.30630,0.04759
2663.37771,0.04731
2661.44913,0.04697
2659.52054,0.04662
2657.59195,0.04636
2655.66337,0.04604
2653.73478,0.04576
2651.80620,0.04549
2649.87761,0.04518
2647.94902,0.04489
2646.02044,0.04461
2644.09185,0.04434
2642.16326,0.04397
2640.23468,0.04366
2638.30609,0.04347
2636.37750,0.04326
2634.44892,0.04299
2632.52033,0.04265
2630.59175,0.04234
2628.66316,0.04204
2626.73457,0.04175
2624.80599,0.04142
2622.87740,0.04111
2620.94881,0.04087
2619.02023,0.04054
2617.09164,0.04028
2615.16306,0.04004
2613.23447,0.03969
2611.30588,0.03930
2609.37730,0.03908
2607.44871,0.03893
2605.52012,0.03862
2603.59154,0.03833
2601.66295,0.03802
2599.73436,0.03769
2597.80578,0.03745
2595.87719,0.03715
2593.94861,0.03687
2592.02002,0.03656
2590.09143,0.03626
2588.16285,0.03591
2586.23426,0.03559
2584.30567,0.03542
2582.37709,0.03521
2580.44850,0.03496
2578.51991,0.03465
2576.59133,0.03426
2574.66274,0.03401
2572.73416,0.03394
2570.80557,0.03381
2568.87698,0.03350
2566.94840,0.03325
2565.01981,0.03299
2563.09122,0.03266
2561.16264,0.03239
2559.23405,0.03212
2557.30547,0.03194
2555.37688,0.03186
2553.44829,0.03166
2551.51971,0.03141
2549.59112,0.03122
2547.66253,0.03098
2545.73395,0.03072
2543.80536,0.03058
2541.87677,0.03045
2539.94819,0.03029
2538.01960,0.03004
2536.09102,0.02975
2534.16243,0.02950
2532.23384,0.02926
2530.30526,0.02908
2528.37667,0.02890
2526.44808,0.02872
2524.51950,0.02858
2522.59091,0.02837
2520.66233,0.02807
2518.73374,0.02772
2516.80515,0.02756
2514.87657,0.02738
2512.94798,0.02712
2511.01939,0.02699
2509.09081,0.02680
2507.16222,0.02656
2505.23363,0.02631
2503.30505,0.02601
2501.37646,0.02573
2499.44788,0.02555
2497.51929,0.02532
2495.59070,0.02496
2493.66212,0.02469
2491.73353,0.02456
2489.80494,0.02445
2487.87636,0.02422
2485.94777,0.02397
2484.01919,0.02376
2482.09060,0.02340
2480.16201,0.02305
2478.23343,0.02282
2476.30484,0.02261
2474.37625,0.02237
2472.44767,0.02198
2470.51908,0.02170
2468.59049,0.02162
2466.66191,0.02158
2464.73332,0.02137
2462.80474,0.02095
2460.87615,0.02062
2458.94756,0.02038
2457.01898,0.02013
2455.09039,0.01991
2453.16180,0.01960
2451.23322,0.01923
2449.30463,0.01898
2447.37604,0.01880
2445.44746,0.01863
2443.51887,0.01845
2441.59029,0.01823
2439.66170,0.01795
2437.73311,0.01759
2435.80453,0.01733
2433.87594,0.01717
2431.94735,0.01693
2430.01877,0.01667
2428.09018,0.01641
2426.16160,0.01614
2424.23301,0.01588
2422.30442,0.01562
2420.37584,0.01546
2418.44725,0.01535
2416.51866,0.01511
2414.59008,0.01484
2412.66149,0.01460
2410.73290,0.01428
2408.80432,0.01405
2406.87573,0.01390
2404.94715,0.01363
2403.01856,0.01339
2401.08997,0.01326
2399.16139,0.01306
2397.23280,0.01284
2395.30421,0.01270
2393.37563,0.01247
2391.44704,0.01213
2389.51846,0.01191
2387.58987,0.01173
2385.66128,0.01153
2383.73270,0.01131
2381.80411,0.01112
2379.87552,0.01082
2377.94694,0.01032
2376.01835,0.00980
2374.08976,0.00933
2372.16118,0.00888
2370.23259,0.00834
2368.30401,0.00775
2366.37542,0.00721
2364.44683,0.00663
2362.51825,0.00619
2360.58966,0.00605
2358.66107,0.00600
2356.73249,0.00590
2354.80390,0.00598
2352.87532,0.00632
2350.94673,0.00687
2349.01814,0.00743
2347.08956,0.00743
2345.16097,0.00685
2343.23238,0.00621
2341.30380,0.00573
2339.37521,0.00543
2337.44662,0.00523
2335.51804,0.00509
2333.58945,0.00498
2331.66087,0.00494
2329.73228,0.00498
2327.80369,0.00494
2325.87511,0.00495
2323.94652,0.00503
2322.01793,0.00510
2320.08935,0.00514
2318.16076,0.00520
2316.23217,0.00530
2314.30359,0.00532
2312.37500,0.00540
2310.44642,0.00552
2308.51783,0.00554
2306.58924,0.00544
2304.66066,0.00531
2302.73207,0.00526
2300.80348,0.00518
2298.87490,0.00511
2296.94631,0.00503
2295.01773,0.00488
2293.08914,0.00486
2291.16055,0.00487
2289.23197,0.00479
2287.30338,0.00467
2285.37479,0.00454
2283.44621,0.00447
2281.51762,0.00435
2279.58903,0.00421
2277.66045,0.00404
2275.73186,0.00387
2273.80328,0.00383
2271.87469,0.00378
2269.94610,0.00363
2268.01752,0.00347
2266.08893,0.00338
2264.16034,0.00335
2262.23176,0.00332
2260.30317,0.00334
2258.37459,0.00325
2256.44600,0.00304
2254.51741,0.00294
2252.58883,0.00293
2250.66024,0.00291
2248.73165,0.00285
2246.80307,0.00271
2244.87448,0.00255
2242.94589,0.00246
2241.01731,0.00239
2239.08872,0.00226
2237.16014,0.00215
2235.23155,0.00211
2233.30296,0.00198
2231.37438,0.00194
2229.44579,0.00193
2227.51720,0.00179
2225.58862,0.00171
2223.66003,0.00156
2221.73145,0.00155
2219.80286,0.00159
2217.87427,0.00142
2215.94569,0.00136
2214.01710,0.00128
2212.08851,0.00117
2210.15993,0.00108
2208.23134,0.00092
2206.30275,0.00088
2204.37417,0.00095
2202.44558,0.00101
2200.51700,0.00093
2198.58841,0.00080
2196.65982,0.00071
2194.73124,0.00069
2192.80265,0.00069
2190.87406,0.00066
2188.94548,0.00067
2187.01689,0.00060
2185.08830,0.00060
2183.15972,0.00069
2181.23113,0.00064
2179.30255,0.00058
2177.37396,0.00060
2175.44537,0.00065
2173.51679,0.00060
2171.58820,0.00048
2169.65961,0.00038
2167.73103,0.00035
2165.80244,0.00046
2163.87386,0.00056
2161.94527,0.00058
2160.01668,0.00054
2158.08810,0.00050
2156.15951,0.00048
2154.23092,0.00053
2152.30234,0.00055
2150.37375,0.00046
2148.44516,0.00047
2146.51658,0.00057
2144.58799,0.00059
2142.65941,0.00052
2140.73082,0.00042
2138.80223,0.00048
2136.87365,0.00052
2134.94506,0.00043
2133.01647,0.00034
2131.08789,0.00032
2129.15930,0.00033
2127.23072,0.00036
2125.30213,0.00038
2123.37354,0.00031
2121.44496,0.00020
2119.51637,0.00018
2117.58778,0.00027
2115.65920,0.00025
2113.73061,0.00016
2111.80202,0.00007
2109.87344,0.00000
2107.94485,0.00005
2106.01627,0.00006
2104.08768,0.00006
2102.15909,0.00010
2100.23051,0.00009
2098.30192,0.00008
2096.37333,0.00011
2094.44475,0.00015
2092.51616,0.00005
2090.58758,-0.00000
2088.65899,-0.00001
2086.73040,-0.00013
2084.80182,-0.00008
2082.87323,0.00001
2080.94464,0.00000
2079.01606,0.00002
2077.08747,0.00003
2075.15888,0.00003
2073.23030,0.00007
2071.30171,0.00007
2069.37313,0.00009
2067.44454,0.00020
2065.51595,0.00018
2063.58737,0.00013
2061.65878,0.00025
2059.73019,0.00033
2057.80161,0.00029
2055.87302,0.00027
2053.94443,0.00038
2052.01585,0.00051
2050.08726,0.00060
2048.15868,0.00065
2046.23009,0.00056
2044.30150,0.00064
2042.37292,0.00086
2040.44433,0.00100
2038.51574,0.00115
2036.58716,0.00136
2034.65857,0.00159
2032.72999,0.00173
2030.80140,0.00184
2028.87281,0.00199
2026.94423,0.00206
2025.01564,0.00207
2023.08705,0.00217
2021.15847,0.00232
2019.22988,0.00245
2017.30129,0.00240
2015.37271,0.00232
2013.44412,0.00248
2011.51554,0.00264
2009.58695,0.00275
2007.65836,0.00289
2005.72978,0.00292
2003.80119,0.00301
2001.87260,0.00308
1999.94402,0.00307
1998.01543,0.00301
1996.08685,0.00298
1994.15826,0.00315
1992.22967,0.00298
1990.30109,0.00270
1988.37250,0.00275
1986.44391,0.00277
1984.51533,0.00276
1982.58674,0.00271
1980.65815,0.00263
1978.72957,0.00258
1976.80098,0.00243
1974.87240,0.00229
1972.94381,0.00219
1971.01522,0.00221
1969.08664,0.00218
1967.15805,0.00182
1965.22946,0.00152
1963.30088,0.00158
1961.37229,0.00156
1959.44371,0.00137
1957.51512,0.00121
1955.58653,0.00107
1953.65795,0.00102
1951.72936,0.00096
1949.80077,0.00087
1947.87219,0.00077
1945.94360,0.00076
1944.01501,0.00078
1942.08643,0.00026
1940.15784,0.00000
1938.22926,0.00033
1936.30067,0.00037
1934.37208,0.00028
1932.44350,0.00010
1930.51491,-0.00002
1928.58632,-0.00003
1926.65774,0.00002
1924.72915,0.00025
1922.80056,0.00000
1920.87198,0.00007
1918.94339,0.00038
1917.01481,-0.00014
1915.08622,0.00013
1913.15763,0.00100
1911.22905,0.00145
1909.30046,0.00174
1907.37187,0.00194
1905.44329,0.00236
1903.51470,0.00280
1901.58612,0.00326
1899.65753,0.00371
1897.72894,0.00412
1895.80036,0.00464
1893.87177,0.00492
1891.94318,0.00554
1890.01460,0.00567
1888.08601,0.00536
1886.15742,0.00597
1884.22884,0.00629
1882.30025,0.00644
1880.37167,0.00665
1878.44308,0.00668
1876.51449,0.00681
1874.58591,0.00679
1872.65732,0.00726
1870.72873,0.00758
1868.80015,0.00656
1866.87156,0.00548
1864.94298,0.00573
1863.01439,0.00592
1861.08580,0.00557
1859.15722,0.00526
1857.22863,0.00462
1855.30004,0.00419
1853.37146,0.00360
1851.44287,0.00316
1849.51428,0.00280
1847.58570,0.00244
1845.65711,0.00252
1843.72853,0.00071
1841.79994,0.00000
1839.87135,0.00089
1837.94277,0.00075
1836.01418,0.00049
1834.08559,0.00030
1832.15701,0.00071
1830.22842,-0.00000
1828.29984,-0.00082
1826.37125,0.00009
1824.44266,-0.00022
1822.51408,-0.00016
1820.58549,0.00059
1818.65690,0.00088
1816.72832,0.00124
1814.79973,0.00168
1812.87114,0.00249
1810.94256,0.00275
1809.01397,0.00299
1807.08539,0.00391
1805.15680,0.00496
1803.22821,0.00601
1801.29963,0.00661
1799.37104,0.00715
1797.44245,0.00835
1795.51387,0.01027
1793.58528,0.01179
1791.65669,0.01171
1789.72811,0.01262
1787.79952,0.01542
1785.87094,0.01740
1783.94235,0.01869
1782.01376,0.02039
1780.08518,0.02174
1778.15659,0.02341
1776.22800,0.02560
1774.29942,0.02781
1772.37083,0.02788
1770.44225,0.02808
1768.51366,0.03063
1766.58507,0.03203
1764.65649,0.03458
1762.72790,0.03682
1760.79931,0.03717
1758.87073,0.03990
1756.94214,0.04203
1755.01355,0.04422
1753.08497,0.04798
1751.15638,0.05015
1749.22780,0.05186
1747.29921,0.05519
1745.37062,0.05915
1743.44204,0.06281
1741.51345,0.06649
1739.58486,0.06909
1737.65628,0.07231
1735.72769,0.07698
1733.79911,0.07676
1731.87052,0.07709
1729.94193,0.08121
1728.01335,0.08347
1726.08476,0.08627
1724.15617,0.08857
1722.22759,0.09065
1720.29900,0.09448
1718.37041,0.09626
1716.44183,0.09635
1714.51324,0.09828
1712.58466,0.10182
1710.65607,0.10487
1708.72748,0.10727
1706.79890,0.10960
1704.87031,0.11085
1702.94172,0.11474
1701.01314,0.11756
1699.08455,0.11680
1697.15596,0.12120
1695.22738,0.12345
1693.29879,0.12558
1691.37021,0.13078
1689.44162,0.13292
1687.51303,0.13651
1685.58445,0.13991
1683.65586,0.13787
1681.72727,0.14043
1679.79869,0.14472
1677.87010,0.14851
1675.94152,0.15062
1674.01293,0.15092
1672.08434,0.15397
1670.15576,0.15583
1668.22717,0.15563
1666.29858,0.15800
1664.37000,0.16074
1662.44141,0.16064
1660.51282,0.16087
1658.58424,0.16237
1656.65565,0.16406
1654.72707,0.16591
1652.79848,0.15958
1650.86989,0.15705
1648.94131,0.16134
1647.01272,0.16097
1645.08413,0.15846
1643.15555,0.15937
1641.22696,0.16058
1639.29838,0.16126
1637.36979,0.16189
1635.44120,0.15921
1633.51262,0.15716
1631.58403,0.15905
1629.65544,0.15905
1627.72686,0.15717
1625.79827,0.15560
1623.86968,0.15341
1621.94110,0.14994
1620.01251,0.14883
1618.08393,0.14823
1616.15534,0.14296
1614.22675,0.14067
1612.29817,0.14076
1610.36958,0.13950
1608.44099,0.13799
1606.51241,0.13644
1604.58382,0.13514
1602.65524,0.13309
1600.72665,0.13119
1598.79806,0.12959
1596.86948,0.12813
1594.94089,0.12654
1593.01230,0.12479
1591.08372,0.12350
1589.15513,0.12189
1587.22654,0.12065
1585.29796,0.11925
1583.36937,0.11783
1581.44079,0.11629
1579.51220,0.11559
1577.58361,0.11531
1575.65503,0.11137
1573.72644,0.11020
1571.79785,0.11226
1569.86927,0.11119
1567.94068,0.10973
1566.01209,0.11089
1564.08351,0.11142
1562.15492,0.11339
1560.22634,0.11468
1558.29775,0.10868
1556.36916,0.10948
1554.44058,0.11240
1552.51199,0.11293
1550.58340,0.11411
1548.65482,0.11442
1546.72623,0.11573
1544.79765,0.11591
1542.86906,0.11517
1540.94047,0.11486
1539.01189,0.11021
1537.08330,0.11125
1535.15471,0.11370
1533.22613,0.11200
1531.29754,0.11078
1529.36895,0.11148
1527.44037,0.11093
1525.51178,0.10911
1523.58320,0.10949
1521.65461,0.10817
1519.72602,0.10635
1517.79744,0.10724
1515.86885,0.10637
1513.94026,0.10563
1512.01168,0.10426
1510.08309,0.10218
1508.15451,0.10016
1506.22592,0.09248
1504.29733,0.08819
1502.36875,0.08847
1500.44016,0.08688
1498.51157,0.08404
1496.58299,0.07995
1494.65440,0.07656
1492.72581,0.07604
1490.79723,0.07429
1488.86864,0.07111
1486.94006,0.06968
1485.01147,0.06950
1483.08288,0.06997
1481.15430,0.07034
1479.22571,0.07154
1477.29712,0.07339
1475.36854,0.07531
1473.43995,0.07800
1471.51137,0.08108
1469.58278,0.08645
1467.65419,0.09215
1465.72561,0.09409
1463.79702,0.09386
1461.86843,0.09480
1459.93985,0.09684
1458.01126,0.09685
1456.08267,0.09374
1454.15409,0.09458
1452.22550,0.09629
1450.29692,0.09656
1448.36833,0.09625
1446.43974,0.09520
1444.51116,0.09522
1442.58257,0.09523
1440.65398,0.09520
1438.72540,0.09592
1436.79681,0.09413
1434.86822,0.09229
1432.93964,0.09313
1431.01105,0.09325
1429.08247,0.09222
1427.15388,0.09223
1425.22529,0.09250
1423.29671,0.09213
1421.36812,0.09269
1419.43953,0.09187
1417.51095,0.09014
1415.58236,0.09116
1413.65378,0.09170
1411.72519,0.09142
1409.79660,0.09095
1407.86802,0.09039
1405.93943,0.08995
1404.01084,0.08862
1402.08226,0.08834
1400.15367,0.08780
1398.22508,0.08622
1396.29650,0.08565
1394.36791,0.08460
1392.43933,0.08389
1390.51074,0.08446
1388.58215,0.08414
1386.65357,0.08186
1384.72498,0.08067
1382.79639,0.08209
1380.86781,0.08411
1378.93922,0.08535
1377.01064,0.08586
1375.08205,0.08551
1373.15346,0.08422
1371.22488,0.08342
1369.29629,0.08283
1367.36770,0.08147
1365.43912,0.08041
1363.51053,0.07892
1361.58194,0.07704
1359.65336,0.07620
1357.72477,0.07588
1355.79619,0.07530
1353.86760,0.07473
1351.93901,0.07449
1350.01043,0.07409
1348.08184,0.07382
1346.15325,0.07360
1344.22467,0.07322
1342.29608,0.07305
1340.36750,0.07259
1338.43891,0.07190
1336.51032,0.07156
1334.58174,0.07157
1332.65315,0.07153
1330.72456,0.07129
1328.79598,0.07105
1326.86739,0.07100
1324.93880,0.07109
1323.01022,0.07107
1321.08163,0.07088
1319.15305,0.07054
1317.22446,0.07030
1315.29587,0.07015
1313.36729,0.06984
1311.43870,0.06966
1309.51011,0.06969
1307.58153,0.06978
1305.65294,0.06980
1303.72435,0.06982
1301.79577,0.06988
1299.86718,0.07008
1297.93860,0.07038
1296.01001,0.07066
1294.08142,0.07124
1292.15284,0.07200
1290.22425,0.07287
1288.29566,0.07391
1286.36708,0.07518
1284.43849,0.07668
1282.50991,0.07814
1280.58132,0.07971
1278.65273,0.08135
1276.72415,0.08290
1274.79556,0.08469
1272.86697,0.08689
1270.93839,0.08932
1269.00980,0.09183
1267.08121,0.09462
1265.15263,0.09797
1263.22404,0.10194
1261.29546,0.10631
1259.36687,0.11113
1257.43828,0.11658
1255.50970,0.12238
1253.58111,0.12837
1251.65252,0.13455
1249.72394,0.14093
1247.79535,0.14720
1245.86677,0.15307
1243.93818,0.15859
1242.00959,0.16364
1240.08101,0.16835
1238.15242,0.17255
1236.22383,0.17623
1234.29525,0.17981
1232.36666,0.18298
1230.43807,0.18577
1228.50949,0.18835
1226.58090,0.19057
1224.65232,0.19252
1222.72373,0.19455
1220.79514,0.19670
1218.86656,0.19844
1216.93797,0.19994
1215.00938,0.20167
1213.08080,0.20350
1211.15221,0.20498
1209.22363,0.20612
1207.29504,0.20739
1205.36645,0.20869
1203.43787,0.20991
1201.50928,0.21111
1199.58069,0.21242
1197.65211,0.21379
1195.72352,0.21474
1193.79493,0.21547
1191.86635,0.21654
1189.93776,0.21797
1188.00918,0.21916
1186.08059,0.22009
1184.15200,0.22125
1182.22342,0.22264
1180.29483,0.22430
1178.36624,0.22619
1176.43766,0.22828
1174.50907,0.23021
1172.58048,0.23193
1170.65190,0.23391
1168.72331,0.23597
1166.79473,0.23804
1164.86614,0.23987
1162.93755,0.24153
1161.00897,0.24316
1159.08038,0.24415
1157.15179,0.24483
1155.22321,0.24580
1153.29462,0.24715
1151.36604,0.24841
1149.43745,0.24959
1147.50886,0.25123
1145.58028,0.25297
1143.65169,0.25490
1141.72310,0.25701
1139.79452,0.25914
1137.86593,0.26160
1135.93734,0.26409
1134.00876,0.26644
1132.08017,0.26872
1130.15159,0.27129
1128.22300,0.27491
1126.29441,0.27922
1124.36583,0.28326
1122.43724,0.28747
1120.50865,0.29235
1118.58007,0.29739
1116.65148,0.30236
1114.72290,0.30772
1112.79431,0.31426
1110.86572,0.32090
1108.93714,0.32693
1107.00855,0.33275
1105.07996,0.33785
1103.15138,0.34250
1101.22279,0.34603
1099.29420,0.34834
1097.36562,0.34986
1095.43703,0.35044
1093.50845,0.35042
1091.57986,0.34942
1089.65127,0.34805
1087.72269,0.34664
1085.79410,0.34496
1083.86551,0.34292
1081.93693,0.34019
1080.00834,0.33716
1078.07976,0.33411
1076.15117,0.33103
1074.22258,0.32728
1072.29400,0.32322
1070.36541,0.31945
1068.43682,0.31571
1066.50824,0.31184
1064.57965,0.30791
1062.65106,0.30403
1060.72248,0.29957
1058.79389,0.29504
1056.86531,0.29069
1054.93672,0.28614
1053.00813,0.28196
1051.07955,0.27751
1049.15096,0.27261
1047.22237,0.26799
1045.29379,0.26396
1043.36520,0.26037
1041.43661,0.25689
1039.50803,0.25383
1037.57944,0.25108
1035.65086,0.24789
1033.72227,0.24440
1031.79368,0.24102
1029.86510,0.23718
1027.93651,0.23288
1026.00792,0.22865
1024.07934,0.22418
1022.15075,0.21958
1020.22217,0.21542
1018.29358,0.21179
1016.36499,0.20818
1014.43641,0.20434
1012.50782,0.20079
1010.57923,0.19759
1008.65065,0.19416
1006.72206,0.19042
1004.79347,0.18674
1002.86489,0.18285
1000.93630,0.17875
999.00772,0.17494
997.07913,0.17103
995.15054,0.16700
993.22196,0.16333
991.29337,0.15960
989.36478,0.15563
987.43620,0.15173
985.50761,0.14758
983.57903,0.14310
981.65044,0.13868
979.72185,0.13431
977.79327,0.12964
975.86468,0.12478
973.93609,0.12012
972.00751,0.11572
970.07892,0.11146
968.15033,0.10743
966.22175,0.10385
964.29316,0.10050
962.36458,0.09737
960.43599,0.09476
958.50740,0.09249
956.57882,0.09046
954.65023,0.08874
952.72164,0.08709
950.79306,0.08532
948.86447,0.08390
946.93589,0.08287
945.00730,0.08202
943.07871,0.08112
941.15013,0.07966
939.22154,0.07856
937.29295,0.07803
935.36437,0.07689
933.43578,0.07556
931.50719,0.07436
929.57861,0.07308
927.65002,0.07203
925.72144,0.07128
923.79285,0.07031
921.86426,0.06936
919.93568,0.06871
918.00709,0.06765
916.07850,0.06657
914.14992,0.06559
912.22133,0.06408
910.29274,0.06179
908.36416,0.05882
906.43557,0.05588
904.50699,0.05296
902.57840,0.05001
900.64981,0.04709
898.72123,0.04382
896.79264,0.04038
894.86405,0.03719
892.93547,0.03482
891.00688,0.03274
889.07830,0.03037
887.14971,0.02796
885.22112,0.02557
883.29254,0.02304
881.36395,0.02042
879.43536,0.01849
877.50678,0.01687
875.57819,0.01488
873.64960,0.01289
871.72102,0.01102
869.79243,0.00949
867.86385,0.00780
865.93526,0.00608
864.00667,0.00503
862.07809,0.00414
860.14950,0.00329
858.22091,0.00231
856.29233,0.00146
854.36374,0.00142
852.43516,0.00205
850.50657,0.00277
848.57798,0.00308
846.64940,0.00386
844.72081,0.00551
842.79222,0.00723
840.86364,0.00948
838.93505,0.01265
837.00646,0.01580
835.07788,0.01839
833.14929,0.02095
831.22071,0.02339
829.29212,0.02542
827.36353,0.02762
825.43495,0.02934
823.50636,0.03031
821.57777,0.03170
819.64919,0.03347
817.72060,0.03506
815.79201,0.03648
813.86343,0.03803
811.93484,0.03968
810.00626,0.04163
808.07767,0.04422
806.14908,0.04671
804.22050,0.04929
802.29191,0.05172
800.36332,0.05240
798.43474,0.05173
796.50615,0.05040
794.57757,0.04812
792.64898,0.04549
790.72039,0.04314
788.79181,0.04103
786.86322,0.03893
784.93463,0.03741
783.00605,0.03671
781.07746,0.03587
779.14887,0.03397
777.22029,0.03056
775.29170,0.02623
773.36312,0.02223
771.43453,0.01890
769.50594,0.01680
767.57736,0.01568
765.64877,0.01417
763.72018,0.01288
761.79160,0.01280
759.86301,0.01337
757.93443,0.01372
756.00584,0.01341
754.07725,0.01299
752.14867,0.01260
750.22008,0.01181
748.29149,0.01092
746.36291,0.00994
744.43432,0.00888
742.50573,0.00803
740.57715,0.00713
738.64856,0.00605
736.71998,0.00506
734.79139,0.00438
732.86280,0.00417
730.93422,0.00424
729.00563,0.00426
727.07704,0.00434
725.14846,0.00467
723.21987,0.00519
721.29129,0.00544
719.36270,0.00509
717.43411,0.00432
715.50553,0.00359
713.57694,0.00340
711.64835,0.00359
709.71977,0.00385
707.79118,0.00418
705.86259,0.00492
703.93401,0.00643
702.00542,0.00783
700.07684,0.00919
698.14825,0.01138
696.21966,0.01298
694.29108,0.01250
692.36249,0.01077
690.43390,0.00918
688.50532,0.00824
686.57673,0.00773
684.64814,0.00716
682.71956,0.00638
680.79097,0.00589
678.86239,0.00582
676.93380,0.00579
675.00521,0.00532
673.07663,0.00532
671.14804,0.00584
669.21945,0.00504
667.29087,0.00425
665.36228,0.00510
663.43370,0.00552
661.50511,0.00510
659.57652,0.00510
657.64794,0.00541
655.71935,0.00515
653.79076,0.00487
651.86218,0.00573
649.93359,0.00682
648.00500,0.00709
646.07642,0.00734
644.14783,0.00790
642.21925,0.00835
640.29066,0.00930
638.36207,0.01006
636.43349,0.00979
634.50490,0.00978
632.57631,0.01067
630.64773,0.01193
628.71914,0.01291
626.79056,0.01347
624.86197,0.01390
622.93338,0.01441
621.00480,0.01539
619.07621,0.01611
617.14762,0.01652
615.21904,0.01781
613.29045,0.01902
611.36186,0.01957
609.43328,0.02050
607.50469,0.02100
605.57611,0.02147
603.64752,0.02261
601.71893,0.02331
599.79035,0.02455
597.86176,0.02669
595.93317,0.02815
594.00459,0.02925
592.07600,0.03104
590.14742,0.03286
588.21883,0.03443
586.29024,0.03641
584.36166,0.03785
582.43307,0.03936
580.50448,0.04208
578.57590,0.04444
576.64731,0.04598
574.71872,0.04758
572.79014,0.05017
570.86155,0.05215
568.93297,0.05343
567.00438,0.05632
565.07579,0.05917
563.14721,0.06153
561.21862,0.06375
559.29003,0.06512
557.36145,0.06727
555.43286,0.06947
553.50427,0.07037
551.57569,0.07172
549.64710,0.07413
547.71852,0.07641
545.78993,0.07865
543.86134,0.08093
541.93276,0.08289
540.00417,0.08514
538.07558,0.08850
536.14700,0.09182
534.21841,0.09270
532.28983,0.09310
530.36124,0.09374
528.43265,0.09297
526.50407,0.09231
524.57548,0.09237
522.64689,0.09255
520.71831,0.09018
518.78972,0.08577
516.86113,0.08359
514.93255,0.08375
513.00396,0.08421
511.07538,0.08231
509.14679,0.08048
507.21820,0.08192
505.28962,0.08444
503.36103,0.08665
501.43244,0.08892
499.50386,0.09384
497.57527,0.10036
495.64669,0.10587
493.71810,0.11270
491.78951,0.12097
489.86093,0.12931
487.93234,0.13739
486.00375,0.14433
484.07517,0.15250
482.14658,0.16271
480.21799,0.17203
478.28941,0.18134
476.36082,0.18819
474.43224,0.19079
472.50365,0.19066
470.57506,0.18556
468.64648,0.18186
466.71789,0.18179
464.78930,0.18071
462.86072,0.17715
460.93213,0.17145
459.00355,0.16408
457.07496,0.15235
455.14637,0.14297
453.21779,0.13781
451.28920,0.13400
449.36061,0.13045
447.43203,0.12079
445.50344,0.11092
443.57485,0.10582
441.64627,0.09832
439.71768,0.09072
437.78910,0.08619
435.86051,0.08243
433.93192,0.07951
432.00334,0.07412
430.07475,0.06602
428.14616,0.06158
426.21758,0.05923
424.28899,0.05553
422.36040,0.05111
420.43182,0.04545
418.50323,0.03981
416.57465,0.03584
414.64606,0.03085
412.71747,0.02290
410.78889,0.01498
408.86030,0.01064
406.93171,0.00870
405.00313,0.00666
403.07454,0.00728
401.14596,0.00825
399.21737,0.00000
