3747.24323,0.00115
3745.31464,0.00311
3743.38605,0.00000
3741.45747,0.00075
3739.52888,0.00415
3737.60030,0.00517
3735.67171,0.00421
3733.74312,0.00326
3731.81454,0.00395
3729.88595,0.00494
3727.95736,0.00654
3726.02878,0.00729
3724.10019,0.00766
3722.17161,0.00917
3720.24302,0.00994
3718.31443,0.01176
3716.38585,0.01362
3714.45726,0.01598
3712.52867,0.01805
3710.60009,0.01830
3708.67150,0.02084
3706.74291,0.02386
3704.81433,0.02753
3702.88574,0.03041
3700.95716,0.03141
3699.02857,0.03336
3697.09998,0.03466
3695.17140,0.03558
3693.24281,0.03612
3691.31422,0.03728
3689.38564,0.03758
3687.45705,0.03671
3685.52846,0.03894
3683.59988,0.04209
3681.67129,0.04511
3679.74271,0.04760
3677.81412,0.05146
3675.88553,0.05399
3673.95695,0.05486
3672.02836,0.06047
3670.09977,0.06398
3668.17119,0.06614
3666.24260,0.07108
3664.31402,0.07545
3662.38543,0.07961
3660.45684,0.08321
3658.52826,0.08706
3656.59967,0.08978
3654.67108,0.09153
3652.74250,0.09575
3650.81391,0.09891
3648.88532,0.09934
3646.95674,0.10050
3645.02815,0.10408
3643.09957,0.10819
3641.17098,0.11100
3639.24239,0.11339
3637.31381,0.11582
3635.38522,0.11855
3633.45663,0.12113
3631.52805,0.12434
3629.59946,0.12620
3627.67088,0.12478
3625.74229,0.12705
3623.81370,0.13019
3621.88512,0.13146
3619.95653,0.13146
3618.02794,0.12951
3616.09936,0.12938
3614.17077,0.12945
3612.24218,0.12855
3610.31360,0.12835
3608.38501,0.12764
3606.45643,0.12713
3604.52784,0.12774
3602.59925,0.12860
3600.67067,0.12841
3598.74208,0.12824
3596.81349,0.12874
3594.88491,0.12852
3592.95632,0.12833
3591.02774,0.12940
3589.09915,0.13051
3587.17056,0.12999
3585.24198,0.13005
3583.31339,0.13148
3581.38480,0.13258
3579.45622,0.13369
3577.52763,0.13473
3575.59904,0.13556
3573.67046,0.13657
3571.74187,0.13798
3569.81329,0.13966
3567.88470,0.14039
3565.95611,0.14052
3564.02753,0.14203
3562.09894,0.14409
3560.17035,0.14510
3558.24177,0.14597
3556.31318,0.14745
3554.38459,0.14889
3552.45601,0.15003
3550.52742,0.15120
3548.59884,0.15270
3546.67025,0.15362
3544.74166,0.15428
3542.81308,0.15554
3540.88449,0.15711
3538.95590,0.15878
3537.02732,0.15985
3535.09873,0.16072
3533.17015,0.16200
3531.24156,0.16343
3529.31297,0.16461
3527.38439,0.16543
3525.45580,0.16659
3523.52721,0.16790
3521.59863,0.16883
3519.67004,0.16969
3517.74145,0.17082
3515.81287,0.17208
3513.88428,0.17327
3511.95570,0.17428
3510.02711,0.17499
3508.09852,0.17588
3506.16994,0.17704
3504.24135,0.17805
3502.31276,0.17879
3500.38418,0.17979
3498.45559,0.18100
3496.52701,0.18184
3494.59842,0.18283
3492.66983,0.18391
3490.74125,0.18470
3488.81266,0.18550
3486.88407,0.18629
3484.95549,0.18705
3483.02690,0.18799
3481.09831,0.18868
3479.16973,0.18932
3477.24114,0.19051
3475.31256,0.19135
3473.38397,0.19193
3471.45538,0.19285
3469.52680,0.19360
3467.59821,0.19416
3465.66962,0.19472
3463.74104,0.19539
3461.81245,0.19587
3459.88386,0.19647
3457.95528,0.19721
3456.02669,0.19782
3454.09811,0.19849
3452.16952,0.19901
3450.24093,0.19982
3448.31235,0.20039
3446.38376,0.20054
3444.45517,0.20128
3442.52659,0.20201
3440.59800,0.20233
3438.66942,0.20278
3436.74083,0.20369
3434.81224,0.20446
3432.88366,0.20491
3430.95507,0.20527
3429.02648,0.20551
3427.09790,0.20614
3425.16931,0.20687
3423.24072,0.20743
3421.31214,0.20766
3419.38355,0.20764
3417.45497,0.20796
3415.52638,0.20846
3413.59779,0.20895
3411.66921,0.20940
3409.74062,0.20960
3407.81203,0.20972
3405.88345,0.21004
3403.95486,0.21030
3402.02628,0.21049
3400.09769,0.21077
3398.16910,0.21105
3396.24052,0.21146
3394.31193,0.21162
3392.38334,0.21176
3390.45476,0.21210
3388.52617,0.21208
3386.59758,0.21200
3384.66900,0.21200
3382.74041,0.21205
3380.81183,0.21239
3378.88324,0.21268
3376.95465,0.21284
3375.02607,0.21312
3373.09748,0.21331
3371.16889,0.21344
3369.24031,0.21369
3367.31172,0.21387
3365.38314,0.21382
3363.45455,0.21366
3361.52596,0.21391
3359.59738,0.21440
3357.66879,0.21446
3355.74020,0.21426
3353.81162,0.21437
3351.88303,0.21490
3349.95444,0.21526
3348.02586,0.21522
3346.09727,0.21512
3344.16869,0.21494
3342.24010,0.21490
3340.31151,0.21517
3338.38293,0.21548
3336.45434,0.21568
3334.52575,0.21567
3332.59717,0.21553
3330.66858,0.21526
3328.73999,0.21510
3326.81141,0.21522
3324.88282,0.21525
3322.95424,0.21513
3321.02565,0.21497
3319.09706,0.21479
3317.16848,0.21493
3315.23989,0.21508
3313.31130,0.21481
3311.38272,0.21458
3309.45413,0.21450
3307.52555,0.21449
3305.59696,0.21458
3303.66837,0.21444
3301.73979,0.21436
3299.81120,0.21436
3297.88261,0.21420
3295.95403,0.21409
3294.02544,0.21375
3292.09685,0.21350
3290.16827,0.21345
3288.23968,0.21305
3286.31110,0.21270
3284.38251,0.21225
3282.45392,0.21165
3280.52534,0.21124
3278.59675,0.21072
3276.66816,0.21012
3274.73958,0.20953
3272.81099,0.20890
3270.88241,0.20831
3268.95382,0.20764
3267.02523,0.20681
3265.09665,0.20583
3263.16806,0.20483
3261.23947,0.20401
3259.31089,0.20323
3257.38230,0.20222
3255.45371,0.20124
3253.52513,0.20052
3251.59654,0.19989
3249.66796,0.19906
3247.73937,0.19815
3245.81078,0.19732
3243.88220,0.19646
3241.95361,0.19569
3240.02502,0.19493
3238.09644,0.19427
3236.16785,0.19364
3234.23927,0.19281
3232.31068,0.19200
3230.38209,0.19117
3228.45351,0.19047
3226.52492,0.18973
3224.59633,0.18902
3222.66775,0.18866
3220.73916,0.18800
3218.81057,0.18720
3216.88199,0.18654
3214.95340,0.18568
3213.02482,0.18483
3211.09623,0.18417
3209.16764,0.18358
3207.23906,0.18292
3205.31047,0.18207
3203.38188,0.18107
3201.45330,0.18026
3199.52471,0.17970
3197.59612,0.17906
3195.66754,0.17844
3193.73895,0.17776
3191.81037,0.17686
3189.88178,0.17618
3187.95319,0.17562
3186.02461,0.17461
3184.09602,0.17359
3182.16743,0.17296
3180.23885,0.17223
3178.31026,0.17139
3176.38168,0.17054
3174.45309,0.16964
3172.52450,0.16879
3170.59592,0.16803
3168.66733,0.16742
3166.73874,0.16685
3164.81016,0.16602
3162.88157,0.16516
3160.95298,0.16444
3159.02440,0.16372
3157.09581,0.16313
3155.16723,0.16240
3153.23864,0.16150
3151.31005,0.16079
3149.38147,0.16014
3147.45288,0.15948
3145.52429,0.15888
3143.59571,0.15827
3141.66712,0.15761
3139.73854,0.15692
3137.80995,0.15628
3135.88136,0.15580
3133.95278,0.15529
3132.02419,0.15450
3130.09560,0.15382
3128.16702,0.15338
3126.23843,0.15297
3124.30984,0.15255
3122.38126,0.15208
3120.45267,0.15179
3118.52409,0.15151
3116.59550,0.15100
3114.66691,0.15040
3112.73833,0.14982
3110.80974,0.14947
3108.88115,0.14921
3106.95257,0.14872
3105.02398,0.14827
3103.09540,0.14799
3101.16681,0.14763
3099.23822,0.14733
3097.30964,0.14704
3095.38105,0.14674
3093.45246,0.14656
3091.52388,0.14614
3089.59529,0.14560
3087.66670,0.14521
3085.73812,0.14482
3083.80953,0.14449
3081.88095,0.14415
3079.95236,0.14377
3078.02377,0.14329
3076.09519,0.14278
3074.16660,0.14242
3072.23801,0.14203
3070.30943,0.14161
3068.38084,0.14113
3066.45225,0.14045
3064.52367,0.13979
3062.59508,0.13913
3060.66650,0.13860
3058.73791,0.13814
3056.80932,0.13741
3054.88074,0.13663
3052.95215,0.13604
3051.02356,0.13545
3049.09498,0.13478
3047.16639,0.13419
3045.23781,0.13366
3043.30922,0.13304
3041.38063,0.13252
3039.45205,0.13209
3037.52346,0.13155
3035.59487,0.13098
3033.66629,0.13051
3031.73770,0.13023
3029.80911,0.12994
3027.88053,0.12950
3025.95194,0.12920
3024.02336,0.12890
3022.09477,0.12853
3020.16618,0.12844
3018.23760,0.12841
3016.30901,0.12813
3014.38042,0.12798
3012.45184,0.12816
3010.52325,0.12842
3008.59467,0.12857
3006.66608,0.12891
3004.73749,0.12948
3002.80891,0.13001
3000.88032,0.13061
2998.95173,0.13131
2997.02315,0.13212
2995.09456,0.13301
2993.16597,0.13384
2991.23739,0.13478
2989.30880,0.13605
2987.38022,0.13764
2985.45163,0.13939
2983.52304,0.14107
2981.59446,0.14270
2979.66587,0.14467
2977.73728,0.14678
2975.80870,0.14868
2973.88011,0.15072
2971.95153,0.15277
2970.02294,0.15484
2968.09435,0.15716
2966.16577,0.15939
2964.23718,0.16161
2962.30859,0.16377
2960.38001,0.16589
2958.45142,0.16810
2956.52283,0.16999
2954.59425,0.17153
2952.66566,0.17311
2950.73708,0.17494
2948.80849,0.17711
2946.87990,0.17962
2944.95132,0.18231
2943.02273,0.18554
2941.09414,0.18957
2939.16556,0.19377
2937.23697,0.19795
2935.30838,0.20206
2933.37980,0.20604
2931.45121,0.20989
2929.52263,0.21328
2927.59404,0.21622
2925.66545,0.21879
2923.73687,0.22091
2921.80828,0.22236
2919.87969,0.22284
2917.95111,0.22089
2916.02252,0.21447
2914.09394,0.20510
2912.16535,0.19612
2910.23676,0.18910
2908.30818,0.18382
2906.37959,0.17944
2904.45100,0.17577
2902.52242,0.17271
2900.59383,0.16999
2898.66524,0.16736
2896.73666,0.16475
2894.80807,0.16220
2892.87949,0.15987
2890.95090,0.15778
2889.02231,0.15554
2887.09373,0.15343
2885.16514,0.15167
2883.23655,0.15009
2881.30797,0.14893
2879.37938,0.14806
2877.45080,0.14752
2875.52221,0.14748
2873.59362,0.14765
2871.66504,0.14784
2869.73645,0.14785
2867.80786,0.14798
2865.87928,0.14872
2863.95069,0.15025
2862.02210,0.15301
2860.09352,0.15728
2858.16493,0.16266
2856.23635,0.16803
2854.30776,0.17165
2852.37917,0.17225
2850.45059,0.16956
2848.52200,0.16311
2846.59341,0.15371
2844.66483,0.14393
2842.73624,0.13521
2840.80766,0.12795
2838.87907,0.12210
2836.95048,0.11711
2835.02190,0.11303
2833.09331,0.10972
2831.16472,0.10678
2829.23614,0.10422
2827.30755,0.10194
2825.37896,0.09989
2823.45038,0.09807
2821.52179,0.09649
2819.59321,0.09500
2817.66462,0.09340
2815.73603,0.09204
2813.80745,0.09098
2811.87886,0.08990
2809.95027,0.08883
2808.02169,0.08781
2806.09310,0.08693
2804.16451,0.08616
2802.23593,0.08530
2800.30734,0.08442
2798.37876,0.08365
2796.45017,0.08279
2794.52158,0.08197
2792.59300,0.08136
2790.66441,0.08055
2788.73582,0.07973
2786.80724,0.07910
2784.87865,0.07842
2782.95007,0.07783
2781.02148,0.07726
2779.09289,0.07664
2777.16431,0.07610
2775.23572,0.07568
2773.30713,0.07526
2771.37855,0.07473
2769.44996,0.07426
2767.52137,0.07390
2765.59279,0.07339
2763.66420,0.07282
2761.73562,0.07236
2759.80703,0.07193
2757.87844,0.07161
2755.94986,0.07129
2754.02127,0.07082
2752.09268,0.07047
2750.16410,0.07009
2748.23551,0.06965
2746.30693,0.06940
2744.37834,0.06916
2742.44975,0.06880
2740.52117,0.06853
2738.59258,0.06829
2736.66399,0.06791
2734.73541,0.06760
2732.80682,0.06736
2730.87823,0.06701
2728.94965,0.06653
2727.02106,0.06610
2725.09248,0.06588
2723.16389,0.06556
2721.23530,0.06507
2719.30672,0.06457
2717.37813,0.06411
2715.44954,0.06366
2713.52096,0.06317
2711.59237,0.06281
2709.66379,0.06254
2707.73520,0.06221
2705.80661,0.06173
2703.87803,0.06128
2701.94944,0.06103
2700.02085,0.06071
2698.09227,0.06038
2696.16368,0.06004
2694.23509,0.05966
2692.30651,0.05938
2690.37792,0.05914
2688.44934,0.05883
2686.52075,0.05849
2684.59216,0.05819
2682.66358,0.05786
2680.73499,0.05752
2678.80640,0.05718
2676.87782,0.05688
2674.94923,0.05663
2673.02064,0.05626
2671.09206,0.05581
2669.16347,0.05548
2667.23489,0.05534
2665.30630,0.05511
2663.37771,0.05458
2661.44913,0.05418
2659.52054,0.05398
2657.59195,0.05371
2655.66337,0.05332
2653.73478,0.05295
2651.80620,0.05267
2649.87761,0.05242
2647.94902,0.05231
2646.02044,0.05207
2644.09185,0.05162
2642.16326,0.05120
2640.23468,0.05083
2638.30609,0.05058
2636.37750,0.05041
2634.44892,0.05019
2632.52033,0.04985
2630.59175,0.04959
2628.66316,0.04939
2626.73457,0.04894
2624.80599,0.04845
2622.87740,0.04817
2620.94881,0.04800
2619.02023,0.04777
2617.09164,0.04735
2615.16306,0.04687
2613.23447,0.04658
2611.30588,0.04637
2609.37730,0.04602
2607.44871,0.04567
2605.52012,0.04535
2603.59154,0.04504
2601.66295,0.04467
2599.73436,0.04428
2597.80578,0.04402
2595.87719,0.04379
2593.94861,0.04361
2592.02002,0.04337
2590.09143,0.04292
2588.16285,0.04250
2586.23426,0.04219
2584.30567,0.04194
2582.37709,0.04167
2580.44850,0.04133
2578.51991,0.04101
2576.59133,0.04077
2574.66274,0.04057
2572.73416,0.04034
2570.80557,0.04008
2568.87698,0.03979
2566.94840,0.03945
2565.01981,0.03907
2563.09122,0.03870
2561.16264,0.03846
2559.23405,0.03828
2557.30547,0.03802
2555.37688,0.03770
2553.44829,0.03744
2551.51971,0.03720
2549.59112,0.03696
2547.66253,0.03664
2545.73395,0.03636
2543.80536,0.03619
2541.87677,0.03592
2539.94819,0.03567
2538.01960,0.03550
2536.09102,0.03526
2534.16243,0.03497
2532.23384,0.03472
2530.30526,0.03457
2528.37667,0.03434
2526.44808,0.03405
2524.51950,0.03384
2522.59091,0.03368
2520.66233,0.03341
2518.73374,0.03301
2516.80515,0.03269
2514.87657,0.03242
2512.94798,0.03213
2511.01939,0.03194
2509.09081,0.03175
2507.16222,0.03139
2505.23363,0.03104
2503.30505,0.03079
2501.37646,0.03044
2499.44788,0.03004
2497.51929,0.02971
2495.59070,0.02943
2493.66212,0.02918
2491.73353,0.02896
2489.80494,0.02874
2487.87636,0.02846
2485.94777,0.02809
2484.01919,0.02776
2482.09060,0.02748
2480.16201,0.02719
2478.23343,0.02703
2476.30484,0.02676
2474.37625,0.02636
2472.44767,0.02612
2470.51908,0.02580
2468.59049,0.02547
2466.66191,0.02528
2464.73332,0.02506
2462.80474,0.02485
2460.87615,0.02449
2458.94756,0.02410
2457.01898,0.02383
2455.09039,0.02353
2453.16180,0.02323
2451.23322,0.02293
2449.30463,0.02268
2447.37604,0.02241
2445.44746,0.02207
2443.51887,0.02174
2441.59029,0.02142
2439.66170,0.02123
2437.73311,0.02104
2435.80453,0.02070
2433.87594,0.02039
2431.94735,0.02018
2430.01877,0.01989
2428.09018,0.01953
2426.16160,0.01923
2424.23301,0.01893
2422.30442,0.01864
2420.37584,0.01844
2418.44725,0.01817
2416.51866,0.01788
2414.59008,0.01766
2412.66149,0.01738
2410.73290,0.01711
2408.80432,0.01690
2406.87573,0.01667
2404.94715,0.01644
2403.01856,0.01615
2401.08997,0.01575
2399.16139,0.01547
2397.23280,0.01523
2395.30421,0.01489
2393.37563,0.01460
2391.44704,0.01443
2389.51846,0.01419
2387.58987,0.01386
2385.66128,0.01368
2383.73270,0.01356
2381.80411,0.01329
2379.87552,0.01308
2377.94694,0.01293
2376.01835,0.01256
2374.08976,0.01205
2372.16118,0.01161
2370.23259,0.01121
2368.30401,0.01070
2366.37542,0.01026
2364.44683,0.00993
2362.51825,0.00957
2360.58966,0.00930
2358.66107,0.00906
2356.73249,0.00892
2354.80390,0.00895
2352.87532,0.00907
2350.94673,0.00928
2349.01814,0.00951
2347.08956,0.00953
2345.16097,0.00923
2343.23238,0.00898
2341.30380,0.00882
2339.37521,0.00860
2337.44662,0.00831
2335.51804,0.00796
2333.58945,0.00767
2331.66087,0.00742
2329.73228,0.00736
2327.80369,0.00741
2325.87511,0.00729
2323.94652,0.00715
2322.01793,0.00704
2320.08935,0.00707
2318.16076,0.00703
2316.23217,0.00691
2314.30359,0.00687
2312.37500,0.00676
2310.44642,0.00670
2308.51783,0.00661
2306.58924,0.00656
2304.66066,0.00654
2302.73207,0.00633
2300.80348,0.00610
2298.87490,0.00602
2296.94631,0.00599
2295.01773,0.00591
2293.08914,0.00578
2291.16055,0.00559
2289.23197,0.00549
2287.30338,0.00539
2285.37479,0.00515
2283.44621,0.00504
2281.51762,0.00492
2279.58903,0.00485
2277.66045,0.00485
2275.73186,0.00470
2273.80328,0.00452
2271.87469,0.00437
2269.94610,0.00429
2268.01752,0.00423
2266.08893,0.00415
2264.16034,0.00403
2262.23176,0.00391
2260.30317,0.00384
2258.37459,0.00364
2256.44600,0.00345
2254.51741,0.00331
2252.58883,0.00319
2250.66024,0.00323
2248.73165,0.00319
2246.80307,0.00301
2244.87448,0.00285
2242.94589,0.00275
2241.01731,0.00269
2239.08872,0.00270
2237.16014,0.00270
2235.23155,0.00257
2233.30296,0.00245
2231.37438,0.00231
2229.44579,0.00219
2227.51720,0.00208
2225.58862,0.00191
2223.66003,0.00183
2221.73145,0.00184
2219.80286,0.00172
2217.87427,0.00155
2215.94569,0.00152
2214.01710,0.00152
2212.08851,0.00149
2210.15993,0.00140
2208.23134,0.00122
2206.30275,0.00108
2204.37417,0.00095
2202.44558,0.00096
2200.51700,0.00100
2198.58841,0.00091
2196.65982,0.00082
2194.73124,0.00081
2192.80265,0.00080
2190.87406,0.00067
2188.94548,0.00055
2187.01689,0.00055
2185.08830,0.00060
2183.15972,0.00071
2181.23113,0.00068
2179.30255,0.00060
2177.37396,0.00052
2175.44537,0.00044
2173.51679,0.00048
2171.58820,0.00036
2169.65961,0.00027
2167.73103,0.00033
2165.80244,0.00032
2163.87386,0.00037
2161.94527,0.00047
2160.01668,0.00052
2158.08810,0.00049
2156.15951,0.00040
2154.23092,0.00045
2152.30234,0.00051
2150.37375,0.00048
2148.44516,0.00043
2146.51658,0.00046
2144.58799,0.00056
2142.65941,0.00047
2140.73082,0.00032
2138.80223,0.00036
2136.87365,0.00043
2134.94506,0.00044
2133.01647,0.00048
2131.08789,0.00050
2129.15930,0.00039
2127.23072,0.00026
2125.30213,0.00029
2123.37354,0.00023
2121.44496,0.00013
2119.51637,0.00014
2117.58778,0.00014
2115.65920,0.00015
2113.73061,0.00008
2111.80202,0.00000
2109.87344,0.00002
2107.94485,0.00006
2106.01627,0.00005
2104.08768,-0.00001
2102.15909,-0.00006
2100.23051,-0.00010
2098.30192,-0.00012
2096.37333,-0.00011
2094.44475,-0.00009
2092.51616,-0.00006
2090.58758,-0.00003
2088.65899,-0.00006
2086.73040,-0.00011
2084.80182,-0.00006
2082.87323,0.00002
2080.94464,0.00012
2079.01606,0.00017
2077.08747,0.00010
2075.15888,0.00004
2073.23030,0.00000
2071.30171,-0.00001
2069.37313,0.00002
2067.44454,0.00006
2065.51595,0.00014
2063.58737,0.00018
2061.65878,0.00018
2059.73019,0.00019
2057.80161,0.00016
2055.87302,0.00015
2053.94443,0.00028
2052.01585,0.00039
2050.08726,0.00038
2048.15868,0.00040
2046.23009,0.00052
2044.30150,0.00071
2042.37292,0.00085
2040.44433,0.00096
2038.51574,0.00111
2036.58716,0.00120
2034.65857,0.00136
2032.72999,0.00154
2030.80140,0.00162
2028.87281,0.00168
2026.94423,0.00174
2025.01564,0.00178
2023.08705,0.00176
2021.15847,0.00180
2019.22988,0.00184
2017.30129,0.00181
2015.37271,0.00191
2013.44412,0.00211
2011.51554,0.00220
2009.58695,0.00223
2007.65836,0.00234
2005.72978,0.00248
2003.80119,0.00259
2001.87260,0.00261
1999.94402,0.00266
1998.01543,0.00267
1996.08685,0.00253
1994.15826,0.00247
1992.22967,0.00242
1990.30109,0.00230
1988.37250,0.00222
1986.44391,0.00211
1984.51533,0.00207
1982.58674,0.00201
1980.65815,0.00193
1978.72957,0.00194
1976.80098,0.00193
1974.87240,0.00183
1972.94381,0.00170
1971.01522,0.00159
1969.08664,0.00146
1967.15805,0.00124
1965.22946,0.00109
1963.30088,0.00103
1961.37229,0.00087
1959.44371,0.00077
1957.51512,0.00070
1955.58653,0.00055
1953.65795,0.00053
1951.72936,0.00054
1949.80077,0.00051
1947.87219,0.00044
1945.94360,0.00037
1944.01501,0.00039
1942.08643,0.00015
1940.15784,0.00000
1938.22926,0.00005
1936.30067,-0.00003
1934.37208,0.00001
1932.44350,0.00004
1930.51491,0.00003
1928.58632,0.00003
1926.65774,0.00003
1924.72915,0.00014
1922.80056,0.00000
1920.87198,-0.00004
1918.94339,0.00013
1917.01481,-0.00002
1915.08622,0.00027
1913.15763,0.00075
1911.22905,0.00103
1909.30046,0.00139
1907.37187,0.00170
1905.44329,0.00216
1903.51470,0.00261
1901.58612,0.00297
1899.65753,0.00339
1897.72894,0.00377
1895.80036,0.00417
1893.87177,0.00454
1891.94318,0.00502
1890.01460,0.00511
1888.08601,0.00499
1886.15742,0.00545
1884.22884,0.00581
1882.30025,0.00599
1880.37167,0.00610
1878.44308,0.00619
1876.51449,0.00634
1874.58591,0.00637
1872.65732,0.00654
1870.72873,0.00648
1868.80015,0.00589
1866.87156,0.00549
1864.94298,0.00557
1863.01439,0.00545
1861.08580,0.00499
1859.15722,0.00457
1857.22863,0.00395
1855.30004,0.00343
1853.37146,0.00294
1851.44287,0.00250
1849.51428,0.00201
1847.58570,0.00163
1845.65711,0.00143
1843.72853,0.00025
1841.79994,0.00000
1839.87135,0.00051
1837.94277,0.00037
1836.01418,0.00012
1834.08559,0.00002
1832.15701,0.00031
1830.22842,-0.00005
1828.29984,-0.00021
1826.37125,0.00056
1824.44266,0.00070
1822.51408,0.00099
1820.58549,0.00160
1818.65690,0.00223
1816.72832,0.00288
1814.79973,0.00350
1812.87114,0.00436
1810.94256,0.00515
1809.01397,0.00606
1807.08539,0.00720
1805.15680,0.00850
1803.22821,0.00990
1801.29963,0.01114
1799.37104,0.01243
1797.44245,0.01419
1795.51387,0.01630
1793.58528,0.01815
1791.65669,0.01947
1789.72811,0.02152
1787.79952,0.02431
1785.87094,0.02650
1783.94235,0.02858
1782.01376,0.03091
1780.08518,0.03310
1778.15659,0.03544
1776.22800,0.03767
1774.29942,0.03982
1772.37083,0.04106
1770.44225,0.04251
1768.51366,0.04499
1766.58507,0.04691
1764.65649,0.04936
1762.72790,0.05148
1760.79931,0.05292
1758.87073,0.05547
1756.94214,0.05782
1755.01355,0.06047
1753.08497,0.06362
1751.15638,0.06604
1749.22780,0.06860
1747.29921,0.07211
1745.37062,0.07598
1743.44204,0.07996
1741.51345,0.08407
1739.58486,0.08772
1737.65628,0.09141
1735.72769,0.09512
1733.79911,0.09671
1731.87052,0.09884
1729.94193,0.10229
1728.01335,0.10485
1726.08476,0.10775
1724.15617,0.11044
1722.22759,0.11326
1720.29900,0.11665
1718.37041,0.11873
1716.44183,0.12044
1714.51324,0.12318
1712.58466,0.12648
1710.65607,0.12922
1708.72748,0.13141
1706.79890,0.13371
1704.87031,0.13558
1702.94172,0.13851
1701.01314,0.14066
1699.08455,0.14153
1697.15596,0.14484
1695.22738,0.14704
1693.29879,0.14965
1691.37021,0.15332
1689.44162,0.15552
1687.51303,0.15846
1685.58445,0.16089
1683.65586,0.16133
1681.72727,0.16429
1679.79869,0.16783
1677.87010,0.17107
1675.94152,0.17328
1674.01293,0.17469
1672.08434,0.17737
1670.15576,0.17914
1668.22717,0.18030
1666.29858,0.18280
1664.37000,0.18508
1662.44141,0.18597
1660.51282,0.18697
1658.58424,0.18847
1656.65565,0.18964
1654.72707,0.19040
1652.79848,0.18731
1650.86989,0.18693
1648.94131,0.18951
1647.01272,0.18923
1645.08413,0.18838
1643.15555,0.18931
1641.22696,0.19026
1639.29838,0.19093
1637.36979,0.19134
1635.44120,0.19018
1633.51262,0.18975
1631.58403,0.19126
1629.65544,0.19121
1627.72686,0.19003
1625.79827,0.18894
1623.86968,0.18716
1621.94110,0.18482
1620.01251,0.18382
1618.08393,0.18303
1616.15534,0.17979
1614.22675,0.17833
1612.29817,0.17815
1610.36958,0.17727
1608.44099,0.17629
1606.51241,0.17513
1604.58382,0.17398
1602.65524,0.17228
1600.72665,0.17072
1598.79806,0.16941
1596.86948,0.16816
1594.94089,0.16676
1593.01230,0.16520
1591.08372,0.16387
1589.15513,0.16224
1587.22654,0.16069
1585.29796,0.15880
1583.36937,0.15701
1581.44079,0.15528
1579.51220,0.15385
1577.58361,0.15258
1575.65503,0.14935
1573.72644,0.14788
1571.79785,0.14804
1569.86927,0.14655
1567.94068,0.14519
1566.01209,0.14529
1564.08351,0.14504
1562.15492,0.14539
1560.22634,0.14523
1558.29775,0.14165
1556.36916,0.14208
1554.44058,0.14347
1552.51199,0.14363
1550.58340,0.14408
1548.65482,0.14375
1546.72623,0.14385
1544.79765,0.14334
1542.86906,0.14236
1540.94047,0.14150
1539.01189,0.13867
1537.08330,0.13894
1535.15471,0.13973
1533.22613,0.13838
1531.29754,0.13704
1529.36895,0.13677
1527.44037,0.13593
1525.51178,0.13452
1523.58320,0.13435
1521.65461,0.13352
1519.72602,0.13331
1517.79744,0.13436
1515.86885,0.13448
1513.94026,0.13447
1512.01168,0.13337
1510.08309,0.13140
1508.15451,0.12907
1506.22592,0.12343
1504.29733,0.11966
1502.36875,0.11832
1500.44016,0.11555
1498.51157,0.11173
1496.58299,0.10753
1494.65440,0.10410
1492.72581,0.10233
1490.79723,0.09997
1488.86864,0.09708
1486.94006,0.09547
1485.01147,0.09489
1483.08288,0.09516
1481.15430,0.09570
1479.22571,0.09674
1477.29712,0.09843
1475.36854,0.10055
1473.43995,0.10370
1471.51137,0.10818
1469.58278,0.11399
1467.65419,0.11939
1465.72561,0.12206
1463.79702,0.12309
1461.86843,0.12444
1459.93985,0.12598
1458.01126,0.12638
1456.08267,0.12557
1454.15409,0.12677
1452.22550,0.12784
1450.29692,0.12807
1448.36833,0.12781
1446.43974,0.12706
1444.51116,0.12697
1442.58257,0.12662
1440.65398,0.12636
1438.72540,0.12656
1436.79681,0.12566
1434.86822,0.12526
1432.93964,0.12620
1431.01105,0.12655
1429.08247,0.12630
1427.15388,0.12671
1425.22529,0.12700
1423.29671,0.12711
1421.36812,0.12768
1419.43953,0.12718
1417.51095,0.12621
1415.58236,0.12646
1413.65378,0.12631
1411.72519,0.12569
1409.79660,0.12518
1407.86802,0.12458
1405.93943,0.12373
1404.01084,0.12250
1402.08226,0.12194
1400.15367,0.12118
1398.22508,0.11986
1396.29650,0.11908
1394.36791,0.11809
1392.43933,0.11728
1390.51074,0.11709
1388.58215,0.11630
1386.65357,0.11443
1384.72498,0.11334
1382.79639,0.11424
1380.86781,0.11605
1378.93922,0.11723
1377.01064,0.11753
1375.08205,0.11712
1373.15346,0.11619
1371.22488,0.11566
1369.29629,0.11489
1367.36770,0.11325
1365.43912,0.11172
1363.51053,0.11011
1361.58194,0.10852
1359.65336,0.10739
1357.72477,0.10647
1355.79619,0.10568
1353.86760,0.10499
1351.93901,0.10442
1350.01043,0.10372
1348.08184,0.10328
1346.15325,0.10302
1344.22467,0.10255
1342.29608,0.10215
1340.36750,0.10168
1338.43891,0.10113
1336.51032,0.10085
1334.58174,0.10076
1332.65315,0.10063
1330.72456,0.10043
1328.79598,0.10018
1326.86739,0.09989
1324.93880,0.09970
1323.01022,0.09957
1321.08163,0.09950
1319.15305,0.09940
1317.22446,0.09928
1315.29587,0.09918
1313.36729,0.09891
1311.43870,0.09858
1309.51011,0.09832
1307.58153,0.09823
1305.65294,0.09817
1303.72435,0.09803
1301.79577,0.09792
1299.86718,0.09796
1297.93860,0.09824
1296.01001,0.09870
1294.08142,0.09940
1292.15284,0.10019
1290.22425,0.10101
1288.29566,0.10211
1286.36708,0.10343
1284.43849,0.10478
1282.50991,0.10618
1280.58132,0.10794
1278.65273,0.10986
1276.72415,0.11150
1274.79556,0.11302
1272.86697,0.11462
1270.93839,0.11641
1269.00980,0.11844
1267.08121,0.12082
1265.15263,0.12348
1263.22404,0.12628
1261.29546,0.12933
1259.36687,0.13269
1257.43828,0.13664
1255.50970,0.14111
1253.58111,0.14575
1251.65252,0.15056
1249.72394,0.15524
1247.79535,0.15986
1245.86677,0.16460
1243.93818,0.16903
1242.00959,0.17309
1240.08101,0.17701
1238.15242,0.18076
1236.22383,0.18420
1234.29525,0.18721
1232.36666,0.18974
1230.43807,0.19205
1228.50949,0.19425
1226.58090,0.19611
1224.65232,0.19790
1222.72373,0.19974
1220.79514,0.20129
1218.86656,0.20277
1216.93797,0.20423
1215.00938,0.20558
1213.08080,0.20699
1211.15221,0.20855
1209.22363,0.21027
1207.29504,0.21182
1205.36645,0.21285
1203.43787,0.21361
1201.50928,0.21446
1199.58069,0.21546
1197.65211,0.21659
1195.72352,0.21761
1193.79493,0.21856
1191.86635,0.21970
1189.93776,0.22069
1188.00918,0.22157
1186.08059,0.22273
1184.15200,0.22403
1182.22342,0.22557
1180.29483,0.22753
1178.36624,0.22996
1176.43766,0.23266
1174.50907,0.23522
1172.58048,0.23762
1170.65190,0.24005
1168.72331,0.24266
1166.79473,0.24513
1164.86614,0.24742
1162.93755,0.24979
1161.00897,0.25172
1159.08038,0.25289
1157.15179,0.25384
1155.22321,0.25473
1153.29462,0.25562
1151.36604,0.25696
1149.43745,0.25873
1147.50886,0.26017
1145.58028,0.26167
1143.65169,0.26400
1141.72310,0.26648
1139.79452,0.26883
1137.86593,0.27145
1135.93734,0.27462
1134.00876,0.27819
1132.08017,0.28120
1130.15159,0.28395
1128.22300,0.28781
1126.29441,0.29264
1124.36583,0.29726
1122.43724,0.30186
1120.50865,0.30646
1118.58007,0.31078
1116.65148,0.31590
1114.72290,0.32190
1112.79431,0.32817
1110.86572,0.33418
1108.93714,0.34022
1107.00855,0.34633
1105.07996,0.35106
1103.15138,0.35474
1101.22279,0.35800
1099.29420,0.36074
1097.36562,0.36268
1095.43703,0.36411
1093.50845,0.36524
1091.57986,0.36513
1089.65127,0.36459
1087.72269,0.36381
1085.79410,0.36288
1083.86551,0.36166
1081.93693,0.35951
1080.00834,0.35742
1078.07976,0.35507
1076.15117,0.35265
1074.22258,0.35066
1072.29400,0.34889
1070.36541,0.34679
1068.43682,0.34404
1066.50824,0.34203
1064.57965,0.34038
1062.65106,0.33851
1060.72248,0.33612
1058.79389,0.33260
1056.86531,0.32947
1054.93672,0.32678
1053.00813,0.32333
1051.07955,0.32016
1049.15096,0.31773
1047.22237,0.31557
1045.29379,0.31403
1043.36520,0.31315
1041.43661,0.31293
1039.50803,0.31230
1037.57944,0.31098
1035.65086,0.31022
1033.72227,0.30913
1031.79368,0.30691
1029.86510,0.30359
1027.93651,0.30003
1026.00792,0.29666
1024.07934,0.29278
1022.15075,0.28911
1020.22217,0.28534
1018.29358,0.28133
1016.36499,0.27772
1014.43641,0.27404
1012.50782,0.27032
1010.57923,0.26650
1008.65065,0.26253
1006.72206,0.25838
1004.79347,0.25386
1002.86489,0.24924
1000.93630,0.24448
999.00772,0.23956
997.07913,0.23472
995.15054,0.22986
993.22196,0.22482
991.29337,0.21965
989.36478,0.21404
987.43620,0.20828
985.50761,0.20239
983.57903,0.19586
981.65044,0.18911
979.72185,0.18219
977.79327,0.17502
975.86468,0.16774
973.93609,0.16038
972.00751,0.15288
970.07892,0.14532
968.15033,0.13860
966.22175,0.13244
964.29316,0.12639
962.36458,0.12089
960.43599,0.11588
958.50740,0.11156
956.57882,0.10784
954.65023,0.10440
952.72164,0.10147
950.79306,0.09909
948.86447,0.09697
946.93589,0.09488
945.00730,0.09275
943.07871,0.09096
941.15013,0.08979
939.22154,0.08888
937.29295,0.08786
935.36437,0.08670
933.43578,0.08561
931.50719,0.08463
929.57861,0.08370
927.65002,0.08277
925.72144,0.08184
923.79285,0.08105
921.86426,0.08035
919.93568,0.07978
918.00709,0.07932
916.07850,0.07874
914.14992,0.07804
912.22133,0.07671
910.29274,0.07455
908.36416,0.07151
906.43557,0.06754
904.50699,0.06334
902.57840,0.05920
900.64981,0.05531
898.72123,0.05157
896.79264,0.04764
894.86405,0.04354
892.93547,0.03965
891.00688,0.03653
889.07830,0.03364
887.14971,0.03076
885.22112,0.02788
883.29254,0.02503
881.36395,0.02262
879.43536,0.02018
877.50678,0.01791
875.57819,0.01588
873.64960,0.01346
871.72102,0.01081
869.79243,0.00861
867.86385,0.00707
865.93526,0.00538
864.00667,0.00373
862.07809,0.00240
860.14950,0.00117
858.22091,0.00068
856.29233,0.00052
854.36374,0.00000
852.43516,-0.00029
850.50657,0.00021
848.57798,0.00094
846.64940,0.00187
844.72081,0.00336
842.79222,0.00497
840.86364,0.00713
838.93505,0.01013
837.00646,0.01313
835.07788,0.01585
833.14929,0.01839
831.22071,0.02064
829.29212,0.02239
827.36353,0.02401
825.43495,0.02523
823.50636,0.02611
821.57777,0.02756
819.64919,0.02880
817.72060,0.02971
815.79201,0.03095
813.86343,0.03261
811.93484,0.03485
810.00626,0.03795
808.07767,0.04222
806.14908,0.04720
804.22050,0.05237
802.29191,0.05608
800.36332,0.05740
798.43474,0.05710
796.50615,0.05468
794.57757,0.05106
792.64898,0.04761
790.72039,0.04446
788.79181,0.04195
786.86322,0.04050
784.93463,0.04038
783.00605,0.04085
781.07746,0.04131
779.14887,0.04016
777.22029,0.03652
775.29170,0.03197
773.36312,0.02716
771.43453,0.02302
769.50594,0.02014
767.57736,0.01800
765.64877,0.01682
763.72018,0.01656
761.79160,0.01658
759.86301,0.01627
757.93443,0.01599
756.00584,0.01593
754.07725,0.01567
752.14867,0.01516
750.22008,0.01460
748.29149,0.01411
746.36291,0.01321
744.43432,0.01196
742.50573,0.01053
740.57715,0.00884
738.64856,0.00736
736.71998,0.00596
734.79139,0.00497
732.86280,0.00473
730.93422,0.00449
729.00563,0.00426
727.07704,0.00428
725.14846,0.00449
723.21987,0.00467
721.29129,0.00453
719.36270,0.00403
717.43411,0.00319
715.50553,0.00263
713.57694,0.00250
711.64835,0.00235
709.71977,0.00257
707.79118,0.00325
705.86259,0.00476
703.93401,0.00680
702.00542,0.00860
700.07684,0.01146
698.14825,0.01535
696.21966,0.01773
694.29108,0.01721
692.36249,0.01509
690.43390,0.01258
688.50532,0.00996
686.57673,0.00812
684.64814,0.00692
682.71956,0.00592
680.79097,0.00538
678.86239,0.00552
676.93380,0.00589
675.00521,0.00591
673.07663,0.00563
671.14804,0.00495
669.21945,0.00375
667.29087,0.00249
665.36228,0.00267
663.43370,0.00265
661.50511,0.00177
659.57652,0.00230
657.64794,0.00276
655.71935,0.00289
653.79076,0.00373
651.86218,0.00452
649.93359,0.00556
648.00500,0.00633
646.07642,0.00629
644.14783,0.00596
642.21925,0.00646
640.29066,0.00707
638.36207,0.00703
636.43349,0.00768
634.50490,0.00844
632.57631,0.00904
630.64773,0.00915
628.71914,0.00912
626.79056,0.00989
624.86197,0.01063
622.93338,0.01125
621.00480,0.01174
619.07621,0.01246
617.14762,0.01292
615.21904,0.01334
613.29045,0.01469
611.36186,0.01603
609.43328,0.01715
607.50469,0.01723
605.57611,0.01732
603.64752,0.01894
601.71893,0.02056
599.79035,0.02211
597.86176,0.02392
595.93317,0.02554
594.00459,0.02712
592.07600,0.02888
590.14742,0.03099
588.21883,0.03371
586.29024,0.03672
584.36166,0.03974
582.43307,0.04303
580.50448,0.04596
578.57590,0.04843
576.64731,0.05124
574.71872,0.05511
572.79014,0.05909
570.86155,0.06140
568.93297,0.06356
567.00438,0.06776
565.07579,0.07283
563.14721,0.07678
561.21862,0.08004
559.29003,0.08409
557.36145,0.08886
555.43286,0.09206
553.50427,0.09370
551.57569,0.09600
549.64710,0.09861
547.71852,0.10265
545.78993,0.10740
543.86134,0.11084
541.93276,0.11539
540.00417,0.12125
538.07558,0.12619
536.14700,0.12887
534.21841,0.13057
532.28983,0.13286
530.36124,0.13527
528.43265,0.13678
526.50407,0.13525
524.57548,0.13284
522.64689,0.13174
520.71831,0.13096
518.78972,0.12938
516.86113,0.12456
514.93255,0.11963
513.00396,0.11625
511.07538,0.11285
509.14679,0.11064
507.21820,0.10904
505.28962,0.10873
503.36103,0.11042
501.43244,0.11402
499.50386,0.11837
497.57527,0.12297
495.64669,0.12942
493.71810,0.13585
491.78951,0.14214
489.86093,0.15062
487.93234,0.16164
486.00375,0.17467
484.07517,0.18707
482.14658,0.19661
480.21799,0.20524
478.28941,0.21337
476.36082,0.21748
474.43224,0.22169
472.50365,0.22600
470.57506,0.22275
468.64648,0.21625
466.71789,0.21182
464.78930,0.20853
462.86072,0.19855
460.93213,0.18465
459.00355,0.17591
457.07496,0.16720
455.14637,0.15711
453.21779,0.14664
451.28920,0.13635
449.36061,0.12666
447.43203,0.11922
445.50344,0.11655
443.57485,0.11261
441.64627,0.10699
439.71768,0.10193
437.78910,0.09736
435.86051,0.09478
433.93192,0.09230
432.00334,0.08809
430.07475,0.08284
428.14616,0.07779
426.21758,0.07507
424.28899,0.07197
422.36040,0.06490
420.43182,0.05930
418.50323,0.05724
416.57465,0.05480
414.64606,0.04598
412.71747,0.03466
410.78889,0.02660
408.86030,0.01545
406.93171,0.00939
405.00313,0.00490
403.07454,0.00000
401.14596,-0.00066
399.21737,0.00000
