3747.24323,0.00135
3745.31464,0.00390
3743.38605,0.00014
3741.45747,0.00000
3739.52888,0.00356
3737.60030,0.00476
3735.67171,0.00419
3733.74312,0.00344
3731.81454,0.00349
3729.88595,0.00389
3727.95736,0.00582
3726.02878,0.00694
3724.10019,0.00725
3722.17161,0.00883
3720.24302,0.00970
3718.31443,0.01178
3716.38585,0.01414
3714.45726,0.01746
3712.52867,0.02063
3710.60009,0.02137
3708.67150,0.02422
3706.74291,0.02748
3704.81433,0.03152
3702.88574,0.03543
3700.95716,0.03731
3699.02857,0.03957
3697.09998,0.04087
3695.17140,0.04192
3693.24281,0.04256
3691.31422,0.04393
3689.38564,0.04461
3687.45705,0.04359
3685.52846,0.04579
3683.59988,0.04935
3681.67129,0.05291
3679.74271,0.05643
3677.81412,0.06143
3675.88553,0.06477
3673.95695,0.06593
3672.02836,0.07214
3670.09977,0.07649
3668.17119,0.07865
3666.24260,0.08392
3664.31402,0.08873
3662.38543,0.09334
3660.45684,0.09749
3658.52826,0.10224
3656.59967,0.10590
3654.67108,0.10782
3652.74250,0.11260
3650.81391,0.11677
3648.88532,0.11784
3646.95674,0.11905
3645.02815,0.12252
3643.09957,0.12661
3641.17098,0.12955
3639.24239,0.13232
3637.31381,0.13511
3635.38522,0.13827
3633.45663,0.14101
3631.52805,0.14467
3629.59946,0.14729
3627.67088,0.14594
3625.74229,0.14751
3623.81370,0.15016
3621.88512,0.15145
3619.95653,0.15170
3618.02794,0.14918
3616.09936,0.14814
3614.17077,0.14790
3612.24218,0.14684
3610.31360,0.14627
3608.38501,0.14480
3606.45643,0.14354
3604.52784,0.14351
3602.59925,0.14336
3600.67067,0.14256
3598.74208,0.14209
3596.81349,0.14219
3594.88491,0.14199
3592.95632,0.14144
3591.02774,0.14175
3589.09915,0.14245
3587.17056,0.14156
3585.24198,0.14090
3583.31339,0.14190
3581.38480,0.14286
3579.45622,0.14348
3577.52763,0.14414
3575.59904,0.14498
3573.67046,0.14574
3571.74187,0.14659
3569.81329,0.14801
3567.88470,0.14872
3565.95611,0.14851
3564.02753,0.14944
3562.09894,0.15104
3560.17035,0.15214
3558.24177,0.15319
3556.31318,0.15410
3554.38459,0.15510
3552.45601,0.15608
3550.52742,0.15691
3548.59884,0.15825
3546.67025,0.15935
3544.74166,0.16006
3542.81308,0.16096
3540.88449,0.16204
3538.95590,0.16312
3537.02732,0.16398
3535.09873,0.16502
3533.17015,0.16624
3531.24156,0.16741
3529.31297,0.16835
3527.38439,0.16915
3525.45580,0.17008
3523.52721,0.17092
3521.59863,0.17182
3519.67004,0.17299
3517.74145,0.17404
3515.81287,0.17494
3513.88428,0.17601
3511.95570,0.17701
3510.02711,0.17777
3508.09852,0.17853
3506.16994,0.17953
3504.24135,0.18064
3502.31276,0.18139
3500.38418,0.18230
3498.45559,0.18352
3496.52701,0.18443
3494.59842,0.18525
3492.66983,0.18610
3490.74125,0.18705
3488.81266,0.18796
3486.88407,0.18878
3484.95549,0.18966
3483.02690,0.19037
3481.09831,0.19102
3479.16973,0.19183
3477.24114,0.19274
3475.31256,0.19351
3473.38397,0.19436
3471.45538,0.19528
3469.52680,0.19592
3467.59821,0.19654
3465.66962,0.19721
3463.74104,0.19789
3461.81245,0.19855
3459.88386,0.19930
3457.95528,0.20009
3456.02669,0.20070
3454.09811,0.20138
3452.16952,0.20200
3450.24093,0.20252
3448.31235,0.20308
3446.38376,0.20370
3444.45517,0.20445
3442.52659,0.20517
3440.59800,0.20568
3438.66942,0.20607
3436.74083,0.20642
3434.81224,0.20687
3432.88366,0.20740
3430.95507,0.20785
3429.02648,0.20845
3427.09790,0.20912
3425.16931,0.20956
3423.24072,0.20974
3421.31214,0.20988
3419.38355,0.21032
3417.45497,0.21091
3415.52638,0.21141
3413.59779,0.21185
3411.66921,0.21240
3409.74062,0.21274
3407.81203,0.21268
3405.88345,0.21286
3403.95486,0.21307
3402.02628,0.21323
3400.09769,0.21353
3398.16910,0.21375
3396.24052,0.21404
3394.31193,0.21423
3392.38334,0.21418
3390.45476,0.21408
3388.52617,0.21424
3386.59758,0.21452
3384.66900,0.21462
3382.74041,0.21466
3380.81183,0.21472
3378.88324,0.21485
3376.95465,0.21499
3375.02607,0.21524
3373.09748,0.21542
3371.16889,0.21529
3369.24031,0.21531
3367.31172,0.21561
3365.38314,0.21588
3363.45455,0.21583
3361.52596,0.21570
3359.59738,0.21579
3357.66879,0.21594
3355.74020,0.21605
3353.81162,0.21615
3351.88303,0.21628
3349.95444,0.21626
3348.02586,0.21610
3346.09727,0.21594
3344.16869,0.21599
3342.24010,0.21621
3340.31151,0.21616
3338.38293,0.21591
3336.45434,0.21569
3334.52575,0.21552
3332.59717,0.21558
3330.66858,0.21565
3328.73999,0.21557
3326.81141,0.21541
3324.88282,0.21513
3322.95424,0.21494
3321.02565,0.21493
3319.09706,0.21491
3317.16848,0.21484
3315.23989,0.21470
3313.31130,0.21461
3311.38272,0.21457
3309.45413,0.21451
3307.52555,0.21432
3305.59696,0.21400
3303.66837,0.21379
3301.73979,0.21363
3299.81120,0.21355
3297.88261,0.21346
3295.95403,0.21325
3294.02544,0.21292
3292.09685,0.21247
3290.16827,0.21216
3288.23968,0.21182
3286.31110,0.21140
3284.38251,0.21093
3282.45392,0.21046
3280.52534,0.21016
3278.59675,0.20962
3276.66816,0.20885
3274.73958,0.20817
3272.81099,0.20749
3270.88241,0.20685
3268.95382,0.20618
3267.02523,0.20543
3265.09665,0.20462
3263.16806,0.20374
3261.23947,0.20287
3259.31089,0.20204
3257.38230,0.20118
3255.45371,0.20032
3253.52513,0.19952
3251.59654,0.19877
3249.66796,0.19804
3247.73937,0.19713
3245.81078,0.19614
3243.88220,0.19539
3241.95361,0.19459
3240.02502,0.19361
3238.09644,0.19269
3236.16785,0.19193
3234.23927,0.19135
3232.31068,0.19075
3230.38209,0.18994
3228.45351,0.18899
3226.52492,0.18813
3224.59633,0.18751
3222.66775,0.18680
3220.73916,0.18589
3218.81057,0.18507
3216.88199,0.18436
3214.95340,0.18352
3213.02482,0.18259
3211.09623,0.18182
3209.16764,0.18105
3207.23906,0.18034
3205.31047,0.17964
3203.38188,0.17873
3201.45330,0.17789
3199.52471,0.17715
3197.59612,0.17638
3195.66754,0.17553
3193.73895,0.17466
3191.81037,0.17396
3189.88178,0.17321
3187.95319,0.17236
3186.02461,0.17144
3184.09602,0.17056
3182.16743,0.16978
3180.23885,0.16877
3178.31026,0.16774
3176.38168,0.16694
3174.45309,0.16611
3172.52450,0.16523
3170.59592,0.16446
3168.66733,0.16377
3166.73874,0.16286
3164.81016,0.16182
3162.88157,0.16103
3160.95298,0.16036
3159.02440,0.15956
3157.09581,0.15877
3155.16723,0.15799
3153.23864,0.15718
3151.31005,0.15650
3149.38147,0.15580
3147.45288,0.15496
3145.52429,0.15420
3143.59571,0.15358
3141.66712,0.15292
3139.73854,0.15211
3137.80995,0.15135
3135.88136,0.15091
3133.95278,0.15041
3132.02419,0.14968
3130.09560,0.14911
3128.16702,0.14859
3126.23843,0.14799
3124.30984,0.14730
3122.38126,0.14668
3120.45267,0.14624
3118.52409,0.14583
3116.59550,0.14535
3114.66691,0.14478
3112.73833,0.14430
3110.80974,0.14391
3108.88115,0.14345
3106.95257,0.14301
3105.02398,0.14253
3103.09540,0.14203
3101.16681,0.14142
3099.23822,0.14078
3097.30964,0.14048
3095.38105,0.14019
3093.45246,0.13970
3091.52388,0.13930
3089.59529,0.13884
3087.66670,0.13823
3085.73812,0.13768
3083.80953,0.13727
3081.88095,0.13688
3079.95236,0.13636
3078.02377,0.13583
3076.09519,0.13529
3074.16660,0.13464
3072.23801,0.13402
3070.30943,0.13359
3068.38084,0.13313
3066.45225,0.13239
3064.52367,0.13168
3062.59508,0.13103
3060.66650,0.13020
3058.73791,0.12950
3056.80932,0.12888
3054.88074,0.12817
3052.95215,0.12740
3051.02356,0.12671
3049.09498,0.12611
3047.16639,0.12547
3045.23781,0.12487
3043.30922,0.12417
3041.38063,0.12352
3039.45205,0.12304
3037.52346,0.12246
3035.59487,0.12197
3033.66629,0.12156
3031.73770,0.12101
3029.80911,0.12046
3027.88053,0.12010
3025.95194,0.11978
3024.02336,0.11928
3022.09477,0.11874
3020.16618,0.11840
3018.23760,0.11831
3016.30901,0.11814
3014.38042,0.11782
3012.45184,0.11778
3010.52325,0.11800
3008.59467,0.11814
3006.66608,0.11826
3004.73749,0.11848
3002.80891,0.11875
3000.88032,0.11923
2998.95173,0.11982
2997.02315,0.12036
2995.09456,0.12095
2993.16597,0.12169
2991.23739,0.12265
2989.30880,0.12376
2987.38022,0.12505
2985.45163,0.12640
2983.52304,0.12779
2981.59446,0.12937
2979.66587,0.13112
2977.73728,0.13315
2975.80870,0.13519
2973.88011,0.13711
2971.95153,0.13917
2970.02294,0.14143
2968.09435,0.14377
2966.16577,0.14607
2964.23718,0.14839
2962.30859,0.15064
2960.38001,0.15281
2958.45142,0.15477
2956.52283,0.15640
2954.59425,0.15797
2952.66566,0.15950
2950.73708,0.16108
2948.80849,0.16299
2946.87990,0.16563
2944.95132,0.16895
2943.02273,0.17264
2941.09414,0.17690
2939.16556,0.18161
2937.23697,0.18651
2935.30838,0.19141
2933.37980,0.19615
2931.45121,0.20087
2929.52263,0.20537
2927.59404,0.20938
2925.66545,0.21260
2923.73687,0.21451
2921.80828,0.21496
2919.87969,0.21361
2917.95111,0.20958
2916.02252,0.20223
2914.09394,0.19270
2912.16535,0.18339
2910.23676,0.17576
2908.30818,0.16989
2906.37959,0.16544
2904.45100,0.16176
2902.52242,0.15839
2900.59383,0.15532
2898.66524,0.15247
2896.73666,0.14982
2894.80807,0.14720
2892.87949,0.14452
2890.95090,0.14202
2889.02231,0.13984
2887.09373,0.13782
2885.16514,0.13585
2883.23655,0.13420
2881.30797,0.13300
2879.37938,0.13215
2877.45080,0.13174
2875.52221,0.13164
2873.59362,0.13174
2871.66504,0.13206
2869.73645,0.13233
2867.80786,0.13277
2865.87928,0.13386
2863.95069,0.13592
2862.02210,0.13930
2860.09352,0.14400
2858.16493,0.14970
2856.23635,0.15573
2854.30776,0.16062
2852.37917,0.16279
2850.45059,0.16051
2848.52200,0.15276
2846.59341,0.14155
2844.66483,0.13038
2842.73624,0.12089
2840.80766,0.11308
2838.87907,0.10683
2836.95048,0.10186
2835.02190,0.09791
2833.09331,0.09462
2831.16472,0.09178
2829.23614,0.08948
2827.30755,0.08745
2825.37896,0.08562
2823.45038,0.08397
2821.52179,0.08246
2819.59321,0.08102
2817.66462,0.07962
2815.73603,0.07856
2813.80745,0.07761
2811.87886,0.07652
2809.95027,0.07543
2808.02169,0.07437
2806.09310,0.07343
2804.16451,0.07258
2802.23593,0.07184
2800.30734,0.07099
2798.37876,0.07006
2796.45017,0.06941
2794.52158,0.06882
2792.59300,0.06810
2790.66441,0.06746
2788.73582,0.06691
2786.80724,0.06630
2784.87865,0.06564
2782.95007,0.06496
2781.02148,0.06433
2779.09289,0.06384
2777.16431,0.06336
2775.23572,0.06282
2773.30713,0.06218
2771.37855,0.06152
2769.44996,0.06111
2767.52137,0.06090
2765.59279,0.06049
2763.66420,0.06000
2761.73562,0.05971
2759.80703,0.05934
2757.87844,0.05887
2755.94986,0.05847
2754.02127,0.05812
2752.09268,0.05777
2750.16410,0.05742
2748.23551,0.05714
2746.30693,0.05688
2744.37834,0.05657
2742.44975,0.05618
2740.52117,0.05577
2738.59258,0.05554
2736.66399,0.05531
2734.73541,0.05498
2732.80682,0.05464
2730.87823,0.05423
2728.94965,0.05377
2727.02106,0.05341
2725.09248,0.05317
2723.16389,0.05281
2721.23530,0.05235
2719.30672,0.05191
2717.37813,0.05152
2715.44954,0.05116
2713.52096,0.05075
2711.59237,0.05033
2709.66379,0.04987
2707.73520,0.04940
2705.80661,0.04908
2703.87803,0.04885
2701.94944,0.04848
2700.02085,0.04805
2698.09227,0.04785
2696.16368,0.04763
2694.23509,0.04718
2692.30651,0.04682
2690.37792,0.04661
2688.44934,0.04637
2686.52075,0.04609
2684.59216,0.04581
2682.66358,0.04554
2680.73499,0.04526
2678.80640,0.04495
2676.87782,0.04464
2674.94923,0.04432
2673.02064,0.04398
2671.09206,0.04372
2669.16347,0.04344
2667.23489,0.04312
2665.30630,0.04281
2663.37771,0.04252
2661.44913,0.04222
2659.52054,0.04183
2657.59195,0.04150
2655.66337,0.04131
2653.73478,0.04105
2651.80620,0.04071
2649.87761,0.04043
2647.94902,0.04017
2646.02044,0.03989
2644.09185,0.03959
2642.16326,0.03929
2640.23468,0.03904
2638.30609,0.03880
2636.37750,0.03848
2634.44892,0.03811
2632.52033,0.03781
2630.59175,0.03762
2628.66316,0.03740
2626.73457,0.03708
2624.80599,0.03671
2622.87740,0.03645
2620.94881,0.03627
2619.02023,0.03597
2617.09164,0.03560
2615.16306,0.03523
2613.23447,0.03491
2611.30588,0.03471
2609.37730,0.03447
2607.44871,0.03416
2605.52012,0.03385
2603.59154,0.03355
2601.66295,0.03329
2599.73436,0.03311
2597.80578,0.03284
2595.87719,0.03253
2593.94861,0.03224
2592.02002,0.03193
2590.09143,0.03168
2588.16285,0.03147
2586.23426,0.03118
2584.30567,0.03084
2582.37709,0.03056
2580.44850,0.03027
2578.51991,0.02997
2576.59133,0.02979
2574.66274,0.02959
2572.73416,0.02928
2570.80557,0.02908
2568.87698,0.02892
2566.94840,0.02869
2565.01981,0.02849
2563.09122,0.02823
2561.16264,0.02791
2559.23405,0.02766
2557.30547,0.02743
2555.37688,0.02721
2553.44829,0.02705
2551.51971,0.02687
2549.59112,0.02670
2547.66253,0.02659
2545.73395,0.02643
2543.80536,0.02616
2541.87677,0.02588
2539.94819,0.02562
2538.01960,0.02544
2536.09102,0.02527
2534.16243,0.02508
2532.23384,0.02499
2530.30526,0.02478
2528.37667,0.02449
2526.44808,0.02433
2524.51950,0.02414
2522.59091,0.02390
2520.66233,0.02371
2518.73374,0.02345
2516.80515,0.02311
2514.87657,0.02279
2512.94798,0.02259
2511.01939,0.02246
2509.09081,0.02228
2507.16222,0.02203
2505.23363,0.02184
2503.30505,0.02163
2501.37646,0.02137
2499.44788,0.02111
2497.51929,0.02083
2495.59070,0.02048
2493.66212,0.02017
2491.73353,0.02004
2489.80494,0.01991
2487.87636,0.01965
2485.94777,0.01940
2484.01919,0.01915
2482.09060,0.01886
2480.16201,0.01855
2478.23343,0.01824
2476.30484,0.01803
2474.37625,0.01787
2472.44767,0.01763
2470.51908,0.01729
2468.59049,0.01701
2466.66191,0.01678
2464.73332,0.01647
2462.80474,0.01613
2460.87615,0.01586
2458.94756,0.01560
2457.01898,0.01539
2455.09039,0.01521
2453.16180,0.01495
2451.23322,0.01470
2449.30463,0.01441
2447.37604,0.01412
2445.44746,0.01392
2443.51887,0.01374
2441.59029,0.01347
2439.66170,0.01316
2437.73311,0.01290
2435.80453,0.01265
2433.87594,0.01244
2431.94735,0.01226
2430.01877,0.01196
2428.09018,0.01168
2426.16160,0.01143
2424.23301,0.01115
2422.30442,0.01100
2420.37584,0.01087
2418.44725,0.01061
2416.51866,0.01033
2414.59008,0.01011
2412.66149,0.00991
2410.73290,0.00972
2408.80432,0.00949
2406.87573,0.00925
2404.94715,0.00906
2403.01856,0.00884
2401.08997,0.00861
2399.16139,0.00840
2397.23280,0.00821
2395.30421,0.00800
2393.37563,0.00781
2391.44704,0.00771
2389.51846,0.00762
2387.58987,0.00740
2385.66128,0.00719
2383.73270,0.00708
2381.80411,0.00695
2379.87552,0.00675
2377.94694,0.00652
2376.01835,0.00624
2374.08976,0.00597
2372.16118,0.00568
2370.23259,0.00531
2368.30401,0.00494
2366.37542,0.00461
2364.44683,0.00421
2362.51825,0.00380
2360.58966,0.00347
2358.66107,0.00327
2356.73249,0.00309
2354.80390,0.00296
2352.87532,0.00298
2350.94673,0.00330
2349.01814,0.00404
2347.08956,0.00447
2345.16097,0.00418
2343.23238,0.00384
2341.30380,0.00359
2339.37521,0.00343
2337.44662,0.00327
2335.51804,0.00296
2333.58945,0.00272
2331.66087,0.00256
2329.73228,0.00245
2327.80369,0.00238
2325.87511,0.00236
2323.94652,0.00234
2322.01793,0.00231
2320.08935,0.00234
2318.16076,0.00230
2316.23217,0.00232
2314.30359,0.00242
2312.37500,0.00246
2310.44642,0.00249
2308.51783,0.00243
2306.58924,0.00231
2304.66066,0.00229
2302.73207,0.00227
2300.80348,0.00222
2298.87490,0.00216
2296.94631,0.00206
2295.01773,0.00194
2293.08914,0.00188
2291.16055,0.00185
2289.23197,0.00183
2287.30338,0.00182
2285.37479,0.00180
2283.44621,0.00169
2281.51762,0.00158
2279.58903,0.00155
2277.66045,0.00148
2275.73186,0.00138
2273.80328,0.00126
2271.87469,0.00119
2269.94610,0.00121
2268.01752,0.00125
2266.08893,0.00117
2264.16034,0.00099
2262.23176,0.00095
2260.30317,0.00094
2258.37459,0.00085
2256.44600,0.00085
2254.51741,0.00090
2252.58883,0.00090
2250.66024,0.00090
2248.73165,0.00084
2246.80307,0.00066
2244.87448,0.00058
2242.94589,0.00064
2241.01731,0.00067
2239.08872,0.00062
2237.16014,0.00051
2235.23155,0.00043
2233.30296,0.00040
2231.37438,0.00036
2229.44579,0.00034
2227.51720,0.00035
2225.58862,0.00036
2223.66003,0.00037
2221.73145,0.00031
2219.80286,0.00016
2217.87427,0.00004
2215.94569,0.00005
2214.01710,0.00008
2212.08851,0.00012
2210.15993,0.00017
2208.23134,0.00012
2206.30275,0.00002
2204.37417,0.00000
2202.44558,0.00002
2200.51700,0.00004
2198.58841,0.00001
2196.65982,-0.00004
2194.73124,-0.00005
2192.80265,-0.00003
2190.87406,-0.00000
2188.94548,0.00002
2187.01689,-0.00000
2185.08830,0.00000
2183.15972,0.00003
2181.23113,0.00000
2179.30255,-0.00004
2177.37396,0.00002
2175.44537,0.00006
2173.51679,0.00006
2171.58820,-0.00008
2169.65961,-0.00021
2167.73103,-0.00010
2165.80244,0.00003
2163.87386,0.00009
2161.94527,0.00017
2160.01668,0.00019
2158.08810,0.00018
2156.15951,0.00019
2154.23092,0.00027
2152.30234,0.00032
2150.37375,0.00027
2148.44516,0.00021
2146.51658,0.00018
2144.58799,0.00016
2142.65941,0.00014
2140.73082,0.00020
2138.80223,0.00026
2136.87365,0.00027
2134.94506,0.00030
2133.01647,0.00026
2131.08789,0.00026
2129.15930,0.00026
2127.23072,0.00021
2125.30213,0.00017
2123.37354,0.00010
2121.44496,0.00008
2119.51637,0.00007
2117.58778,0.00008
2115.65920,0.00009
2113.73061,0.00000
2111.80202,-0.00000
2109.87344,0.00001
2107.94485,0.00000
2106.01627,0.00003
2104.08768,0.00005
2102.15909,0.00012
2100.23051,0.00015
2098.30192,0.00013
2096.37333,0.00012
2094.44475,0.00011
2092.51616,0.00016
2090.58758,0.00023
2088.65899,0.00020
2086.73040,0.00018
2084.80182,0.00016
2082.87323,0.00004
2080.94464,0.00000
2079.01606,0.00003
2077.08747,0.00006
2075.15888,0.00006
2073.23030,-0.00002
2071.30171,-0.00007
2069.37313,-0.00008
2067.44454,-0.00008
2065.51595,-0.00011
2063.58737,-0.00018
2061.65878,-0.00023
2059.73019,-0.00019
2057.80161,-0.00005
2055.87302,-0.00003
2053.94443,-0.00007
2052.01585,-0.00005
2050.08726,0.00000
2048.15868,0.00007
2046.23009,0.00011
2044.30150,0.00023
2042.37292,0.00038
2040.44433,0.00052
2038.51574,0.00069
2036.58716,0.00088
2034.65857,0.00109
2032.72999,0.00124
2030.80140,0.00137
2028.87281,0.00143
2026.94423,0.00146
2025.01564,0.00147
2023.08705,0.00145
2021.15847,0.00148
2019.22988,0.00158
2017.30129,0.00168
2015.37271,0.00167
2013.44412,0.00180
2011.51554,0.00206
2009.58695,0.00229
2007.65836,0.00246
2005.72978,0.00251
2003.80119,0.00259
2001.87260,0.00265
1999.94402,0.00268
1998.01543,0.00269
1996.08685,0.00268
1994.15826,0.00277
1992.22967,0.00260
1990.30109,0.00240
1988.37250,0.00233
1986.44391,0.00220
1984.51533,0.00217
1982.58674,0.00208
1980.65815,0.00196
1978.72957,0.00197
1976.80098,0.00189
1974.87240,0.00176
1972.94381,0.00163
1971.01522,0.00154
1969.08664,0.00147
1967.15805,0.00127
1965.22946,0.00105
1963.30088,0.00096
1961.37229,0.00081
1959.44371,0.00068
1957.51512,0.00058
1955.58653,0.00047
1953.65795,0.00048
1951.72936,0.00047
1949.80077,0.00040
1947.87219,0.00034
1945.94360,0.00032
1944.01501,0.00038
1942.08643,0.00013
1940.15784,-0.00006
1938.22926,-0.00000
1936.30067,-0.00002
1934.37208,-0.00005
1932.44350,-0.00012
1930.51491,-0.00018
1928.58632,-0.00020
1926.65774,-0.00012
1924.72915,0.00009
1922.80056,0.00000
1920.87198,0.00005
1918.94339,0.00037
1917.01481,0.00028
1915.08622,0.00051
1913.15763,0.00106
1911.22905,0.00142
1909.30046,0.00185
1907.37187,0.00234
1905.44329,0.00290
1903.51470,0.00338
1901.58612,0.00384
1899.65753,0.00448
1897.72894,0.00503
1895.80036,0.00549
1893.87177,0.00590
1891.94318,0.00653
1890.01460,0.00688
1888.08601,0.00682
1886.15742,0.00715
1884.22884,0.00747
1882.30025,0.00769
1880.37167,0.00787
1878.44308,0.00793
1876.51449,0.00811
1874.58591,0.00820
1872.65732,0.00846
1870.72873,0.00861
1868.80015,0.00813
1866.87156,0.00751
1864.94298,0.00736
1863.01439,0.00716
1861.08580,0.00658
1859.15722,0.00593
1857.22863,0.00517
1855.30004,0.00449
1853.37146,0.00362
1851.44287,0.00286
1849.51428,0.00231
1847.58570,0.00196
1845.65711,0.00189
1843.72853,0.00073
1841.79994,0.00000
1839.87135,0.00013
1837.94277,-0.00009
1836.01418,-0.00029
1834.08559,-0.00046
1832.15701,-0.00013
1830.22842,-0.00024
1828.29984,-0.00066
1826.37125,-0.00024
1824.44266,-0.00022
1822.51408,-0.00002
1820.58549,0.00057
1818.65690,0.00099
1816.72832,0.00144
1814.79973,0.00196
1812.87114,0.00281
1810.94256,0.00353
1809.01397,0.00422
1807.08539,0.00519
1805.15680,0.00634
1803.22821,0.00758
1801.29963,0.00867
1799.37104,0.00973
1797.44245,0.01106
1795.51387,0.01290
1793.58528,0.01472
1791.65669,0.01576
1789.72811,0.01714
1787.79952,0.01949
1785.87094,0.02158
1783.94235,0.02333
1782.01376,0.02529
1780.08518,0.02716
1778.15659,0.02912
1776.22800,0.03128
1774.29942,0.03351
1772.37083,0.03471
1770.44225,0.03570
1768.51366,0.03788
1766.58507,0.03963
1764.65649,0.04187
1762.72790,0.04411
1760.79931,0.04547
1758.87073,0.04804
1756.94214,0.05061
1755.01355,0.05323
1753.08497,0.05673
1751.15638,0.05971
1749.22780,0.06258
1747.29921,0.06637
1745.37062,0.07062
1743.44204,0.07489
1741.51345,0.07939
1739.58486,0.08333
1737.65628,0.08734
1735.72769,0.09206
1733.79911,0.09420
1731.87052,0.09589
1729.94193,0.09949
1728.01335,0.10212
1726.08476,0.10494
1724.15617,0.10775
1722.22759,0.11038
1720.29900,0.11406
1718.37041,0.11674
1716.44183,0.11815
1714.51324,0.12005
1712.58466,0.12269
1710.65607,0.12511
1708.72748,0.12725
1706.79890,0.12943
1704.87031,0.13083
1702.94172,0.13373
1701.01314,0.13637
1699.08455,0.13715
1697.15596,0.14057
1695.22738,0.14287
1693.29879,0.14485
1691.37021,0.14896
1689.44162,0.15164
1687.51303,0.15515
1685.58445,0.15853
1683.65586,0.15918
1681.72727,0.16180
1679.79869,0.16531
1677.87010,0.16870
1675.94152,0.17134
1674.01293,0.17300
1672.08434,0.17592
1670.15576,0.17848
1668.22717,0.17978
1666.29858,0.18169
1664.37000,0.18405
1662.44141,0.18506
1660.51282,0.18584
1658.58424,0.18715
1656.65565,0.18865
1654.72707,0.19046
1652.79848,0.18774
1650.86989,0.18579
1648.94131,0.18825
1647.01272,0.18843
1645.08413,0.18686
1643.15555,0.18701
1641.22696,0.18767
1639.29838,0.18815
1637.36979,0.18871
1635.44120,0.18744
1633.51262,0.18591
1631.58403,0.18653
1629.65544,0.18626
1627.72686,0.18483
1625.79827,0.18324
1623.86968,0.18126
1621.94110,0.17846
1620.01251,0.17667
1618.08393,0.17551
1616.15534,0.17153
1614.22675,0.16866
1612.29817,0.16726
1610.36958,0.16508
1608.44099,0.16284
1606.51241,0.16065
1604.58382,0.15882
1602.65524,0.15681
1600.72665,0.15502
1598.79806,0.15333
1596.86948,0.15171
1594.94089,0.14993
1593.01230,0.14791
1591.08372,0.14625
1589.15513,0.14434
1587.22654,0.14255
1585.29796,0.14068
1583.36937,0.13893
1581.44079,0.13719
1579.51220,0.13603
1577.58361,0.13533
1575.65503,0.13240
1573.72644,0.13077
1571.79785,0.13140
1569.86927,0.13066
1567.94068,0.12963
1566.01209,0.12980
1564.08351,0.12987
1562.15492,0.13107
1560.22634,0.13205
1558.29775,0.12934
1556.36916,0.12922
1554.44058,0.13064
1552.51199,0.13071
1550.58340,0.13135
1548.65482,0.13136
1546.72623,0.13156
1544.79765,0.13160
1542.86906,0.13142
1540.94047,0.13119
1539.01189,0.12814
1537.08330,0.12730
1535.15471,0.12788
1533.22613,0.12642
1531.29754,0.12478
1529.36895,0.12411
1527.44037,0.12327
1525.51178,0.12164
1523.58320,0.12098
1521.65461,0.11973
1519.72602,0.11801
1517.79744,0.11783
1515.86885,0.11652
1513.94026,0.11466
1512.01168,0.11252
1510.08309,0.11034
1508.15451,0.10848
1506.22592,0.10325
1504.29733,0.09844
1502.36875,0.09642
1500.44016,0.09373
1498.51157,0.09051
1496.58299,0.08657
1494.65440,0.08283
1492.72581,0.08103
1490.79723,0.07910
1488.86864,0.07664
1486.94006,0.07509
1485.01147,0.07436
1483.08288,0.07435
1481.15430,0.07477
1479.22571,0.07595
1477.29712,0.07808
1475.36854,0.08114
1473.43995,0.08525
1471.51137,0.08984
1469.58278,0.09541
1467.65419,0.10075
1465.72561,0.10334
1463.79702,0.10400
1461.86843,0.10476
1459.93985,0.10641
1458.01126,0.10745
1456.08267,0.10639
1454.15409,0.10647
1452.22550,0.10710
1450.29692,0.10700
1448.36833,0.10670
1446.43974,0.10603
1444.51116,0.10590
1442.58257,0.10572
1440.65398,0.10555
1438.72540,0.10614
1436.79681,0.10563
1434.86822,0.10475
1432.93964,0.10520
1431.01105,0.10553
1429.08247,0.10522
1427.15388,0.10544
1425.22529,0.10591
1423.29671,0.10620
1421.36812,0.10702
1419.43953,0.10706
1417.51095,0.10631
1415.58236,0.10680
1413.65378,0.10729
1411.72519,0.10736
1409.79660,0.10734
1407.86802,0.10722
1405.93943,0.10716
1404.01084,0.10661
1402.08226,0.10633
1400.15367,0.10575
1398.22508,0.10444
1396.29650,0.10359
1394.36791,0.10232
1392.43933,0.10109
1390.51074,0.10091
1388.58215,0.10063
1386.65357,0.09955
1384.72498,0.09890
1382.79639,0.09939
1380.86781,0.10009
1378.93922,0.10039
1377.01064,0.10025
1375.08205,0.09944
1373.15346,0.09796
1371.22488,0.09664
1369.29629,0.09552
1367.36770,0.09409
1365.43912,0.09277
1363.51053,0.09129
1361.58194,0.08967
1359.65336,0.08853
1357.72477,0.08762
1355.79619,0.08668
1353.86760,0.08577
1351.93901,0.08496
1350.01043,0.08421
1348.08184,0.08350
1346.15325,0.08286
1344.22467,0.08235
1342.29608,0.08189
1340.36750,0.08122
1338.43891,0.08049
1336.51032,0.07998
1334.58174,0.07954
1332.65315,0.07921
1330.72456,0.07893
1328.79598,0.07855
1326.86739,0.07825
1324.93880,0.07802
1323.01022,0.07772
1321.08163,0.07739
1319.15305,0.07705
1317.22446,0.07672
1315.29587,0.07649
1313.36729,0.07624
1311.43870,0.07588
1309.51011,0.07549
1307.58153,0.07517
1305.65294,0.07504
1303.72435,0.07495
1301.79577,0.07484
1299.86718,0.07489
1297.93860,0.07496
1296.01001,0.07504
1294.08142,0.07533
1292.15284,0.07592
1290.22425,0.07672
1288.29566,0.07749
1286.36708,0.07850
1284.43849,0.07980
1282.50991,0.08119
1280.58132,0.08261
1278.65273,0.08401
1276.72415,0.08557
1274.79556,0.08727
1272.86697,0.08912
1270.93839,0.09100
1269.00980,0.09294
1267.08121,0.09504
1265.15263,0.09734
1263.22404,0.10005
1261.29546,0.10302
1259.36687,0.10627
1257.43828,0.11010
1255.50970,0.11462
1253.58111,0.11965
1251.65252,0.12466
1249.72394,0.12965
1247.79535,0.13474
1245.86677,0.13984
1243.93818,0.14462
1242.00959,0.14899
1240.08101,0.15311
1238.15242,0.15674
1236.22383,0.16005
1234.29525,0.16310
1232.36666,0.16581
1230.43807,0.16844
1228.50949,0.17087
1226.58090,0.17325
1224.65232,0.17559
1222.72373,0.17776
1220.79514,0.17976
1218.86656,0.18161
1216.93797,0.18351
1215.00938,0.18543
1213.08080,0.18742
1211.15221,0.18939
1209.22363,0.19134
1207.29504,0.19347
1205.36645,0.19548
1203.43787,0.19734
1201.50928,0.19912
1199.58069,0.20069
1197.65211,0.20221
1195.72352,0.20369
1193.79493,0.20501
1191.86635,0.20647
1189.93776,0.20807
1188.00918,0.20944
1186.08059,0.21084
1184.15200,0.21261
1182.22342,0.21460
1180.29483,0.21664
1178.36624,0.21880
1176.43766,0.22124
1174.50907,0.22372
1172.58048,0.22637
1170.65190,0.22923
1168.72331,0.23177
1166.79473,0.23421
1164.86614,0.23674
1162.93755,0.23929
1161.00897,0.24142
1159.08038,0.24245
1157.15179,0.24314
1155.22321,0.24424
1153.29462,0.24567
1151.36604,0.24744
1149.43745,0.24906
1147.50886,0.25033
1145.58028,0.25207
1143.65169,0.25469
1141.72310,0.25771
1139.79452,0.26098
1137.86593,0.26433
1135.93734,0.26751
1134.00876,0.27092
1132.08017,0.27457
1130.15159,0.27847
1128.22300,0.28295
1126.29441,0.28784
1124.36583,0.29268
1122.43724,0.29760
1120.50865,0.30295
1118.58007,0.30841
1116.65148,0.31385
1114.72290,0.31940
1112.79431,0.32526
1110.86572,0.33119
1108.93714,0.33670
1107.00855,0.34184
1105.07996,0.34636
1103.15138,0.35011
1101.22279,0.35297
1099.29420,0.35525
1097.36562,0.35709
1095.43703,0.35835
1093.50845,0.35922
1091.57986,0.35931
1089.65127,0.35929
1087.72269,0.35903
1085.79410,0.35790
1083.86551,0.35660
1081.93693,0.35532
1080.00834,0.35402
1078.07976,0.35271
1076.15117,0.35147
1074.22258,0.34986
1072.29400,0.34806
1070.36541,0.34701
1068.43682,0.34621
1066.50824,0.34551
1064.57965,0.34498
1062.65106,0.34386
1060.72248,0.34212
1058.79389,0.34036
1056.86531,0.33825
1054.93672,0.33581
1053.00813,0.33409
1051.07955,0.33261
1049.15096,0.33124
1047.22237,0.33104
1045.29379,0.33161
1043.36520,0.33220
1041.43661,0.33323
1039.50803,0.33470
1037.57944,0.33555
1035.65086,0.33576
1033.72227,0.33563
1031.79368,0.33474
1029.86510,0.33292
1027.93651,0.33038
1026.00792,0.32748
1024.07934,0.32402
1022.15075,0.32065
1020.22217,0.31779
1018.29358,0.31446
1016.36499,0.31115
1014.43641,0.30826
1012.50782,0.30522
1010.57923,0.30177
1008.65065,0.29805
1006.72206,0.29440
1004.79347,0.29042
1002.86489,0.28576
1000.93630,0.28066
999.00772,0.27570
997.07913,0.27072
995.15054,0.26526
993.22196,0.25987
991.29337,0.25457
989.36478,0.24876
987.43620,0.24236
985.50761,0.23569
983.57903,0.22861
981.65044,0.22082
979.72185,0.21295
977.79327,0.20491
975.86468,0.19637
973.93609,0.18759
972.00751,0.17897
970.07892,0.17075
968.15033,0.16272
966.22175,0.15519
964.29316,0.14826
962.36458,0.14181
960.43599,0.13602
958.50740,0.13098
956.57882,0.12661
954.65023,0.12227
952.72164,0.11847
950.79306,0.11582
948.86447,0.11337
946.93589,0.11114
945.00730,0.10928
943.07871,0.10761
941.15013,0.10620
939.22154,0.10493
937.29295,0.10378
935.36437,0.10255
933.43578,0.10127
931.50719,0.10000
929.57861,0.09879
927.65002,0.09787
925.72144,0.09700
923.79285,0.09652
921.86426,0.09635
919.93568,0.09594
918.00709,0.09555
916.07850,0.09510
914.14992,0.09434
912.22133,0.09262
910.29274,0.08960
908.36416,0.08581
906.43557,0.08124
904.50699,0.07604
902.57840,0.07070
900.64981,0.06529
898.72123,0.05996
896.79264,0.05507
894.86405,0.05064
892.93547,0.04674
891.00688,0.04324
889.07830,0.03978
887.14971,0.03671
885.22112,0.03386
883.29254,0.03112
881.36395,0.02829
879.43536,0.02509
877.50678,0.02227
875.57819,0.01976
873.64960,0.01728
871.72102,0.01475
869.79243,0.01213
867.86385,0.00957
865.93526,0.00706
864.00667,0.00509
862.07809,0.00376
860.14950,0.00263
858.22091,0.00118
856.29233,0.00000
854.36374,-0.00022
852.43516,-0.00021
850.50657,-0.00005
848.57798,0.00068
846.64940,0.00172
844.72081,0.00335
842.79222,0.00567
840.86364,0.00851
838.93505,0.01166
837.00646,0.01470
835.07788,0.01741
833.14929,0.02033
831.22071,0.02304
829.29212,0.02487
827.36353,0.02616
825.43495,0.02691
823.50636,0.02724
821.57777,0.02786
819.64919,0.02913
817.72060,0.03049
815.79201,0.03192
813.86343,0.03401
811.93484,0.03670
810.00626,0.04057
808.07767,0.04625
806.14908,0.05312
804.22050,0.05970
802.29191,0.06456
800.36332,0.06683
798.43474,0.06606
796.50615,0.06261
794.57757,0.05768
792.64898,0.05327
790.72039,0.05015
788.79181,0.04790
786.86322,0.04640
784.93463,0.04589
783.00605,0.04705
781.07746,0.04808
779.14887,0.04649
777.22029,0.04274
775.29170,0.03774
773.36312,0.03218
771.43453,0.02750
769.50594,0.02455
767.57736,0.02263
765.64877,0.02104
763.72018,0.02038
761.79160,0.02087
759.86301,0.02129
757.93443,0.02135
756.00584,0.02147
754.07725,0.02121
752.14867,0.02059
750.22008,0.01955
748.29149,0.01831
746.36291,0.01709
744.43432,0.01569
742.50573,0.01394
740.57715,0.01137
738.64856,0.00873
736.71998,0.00672
734.79139,0.00550
732.86280,0.00485
730.93422,0.00426
729.00563,0.00417
727.07704,0.00426
725.14846,0.00470
723.21987,0.00500
721.29129,0.00469
719.36270,0.00460
717.43411,0.00354
715.50553,0.00238
713.57694,0.00227
711.64835,0.00218
709.71977,0.00271
707.79118,0.00387
705.86259,0.00557
703.93401,0.00725
702.00542,0.00883
700.07684,0.01250
698.14825,0.01783
696.21966,0.02156
694.29108,0.02107
692.36249,0.01700
690.43390,0.01273
688.50532,0.01008
686.57673,0.00818
684.64814,0.00648
682.71956,0.00550
680.79097,0.00503
678.86239,0.00469
676.93380,0.00403
675.00521,0.00297
673.07663,0.00213
671.14804,0.00181
669.21945,0.00156
667.29087,0.00087
665.36228,0.00062
663.43370,0.00071
661.50511,0.00072
659.57652,0.00048
657.64794,0.00000
655.71935,0.00042
653.79076,0.00107
651.86218,0.00126
649.93359,0.00108
648.00500,0.00100
646.07642,0.00204
644.14783,0.00230
642.21925,0.00229
640.29066,0.00354
638.36207,0.00393
636.43349,0.00385
634.50490,0.00440
632.57631,0.00529
630.64773,0.00624
628.71914,0.00690
626.79056,0.00757
624.86197,0.00794
622.93338,0.00800
621.00480,0.00829
619.07621,0.00933
617.14762,0.01077
615.21904,0.01175
613.29045,0.01319
611.36186,0.01433
609.43328,0.01448
607.50469,0.01535
605.57611,0.01634
603.64752,0.01699
601.71893,0.01887
599.79035,0.02123
597.86176,0.02226
595.93317,0.02375
594.00459,0.02702
592.07600,0.02987
590.14742,0.03219
588.21883,0.03446
586.29024,0.03676
584.36166,0.04080
582.43307,0.04564
580.50448,0.04919
578.57590,0.05244
576.64731,0.05639
574.71872,0.05981
572.79014,0.06380
570.86155,0.06875
568.93297,0.07324
567.00438,0.07835
565.07579,0.08337
563.14721,0.08803
561.21862,0.09261
559.29003,0.09658
557.36145,0.10009
555.43286,0.10161
553.50427,0.10354
551.57569,0.10778
549.64710,0.11235
547.71852,0.11702
545.78993,0.12130
543.86134,0.12477
541.93276,0.12843
540.00417,0.13464
538.07558,0.14103
536.14700,0.14471
534.21841,0.14859
532.28983,0.15167
530.36124,0.15142
528.43265,0.14961
526.50407,0.14870
524.57548,0.14864
522.64689,0.14682
520.71831,0.14227
518.78972,0.13711
516.86113,0.13390
514.93255,0.13181
513.00396,0.12831
511.07538,0.12391
509.14679,0.12014
507.21820,0.11768
505.28962,0.11760
503.36103,0.11798
501.43244,0.11863
499.50386,0.12277
497.57527,0.12756
495.64669,0.13247
493.71810,0.13922
491.78951,0.14633
489.86093,0.15714
487.93234,0.17035
486.00375,0.17979
484.07517,0.18874
482.14658,0.19913
480.21799,0.20759
478.28941,0.21693
476.36082,0.22436
474.43224,0.22674
472.50365,0.22750
470.57506,0.22518
468.64648,0.21996
466.71789,0.21261
464.78930,0.20331
462.86072,0.19125
460.93213,0.18142
459.00355,0.17355
457.07496,0.16075
455.14637,0.14989
453.21779,0.14049
451.28920,0.12923
449.36061,0.11953
447.43203,0.11260
445.50344,0.10675
443.57485,0.10206
441.64627,0.10163
439.71768,0.09913
437.78910,0.09270
435.86051,0.08646
433.93192,0.08348
432.00334,0.08423
430.07475,0.08325
428.14616,0.07967
426.21758,0.07256
424.28899,0.06702
422.36040,0.06390
420.43182,0.05548
418.50323,0.04649
416.57465,0.04173
414.64606,0.03702
412.71747,0.02963
410.78889,0.02642
408.86030,0.02670
406.93171,0.01896
405.00313,0.00907
403.07454,0.00499
401.14596,0.00267
399.21737,0.00000
