3747.24323,0.00000
3745.31464,0.00182
3743.38605,0.00040
3741.45747,0.00025
3739.52888,0.00227
3737.60030,0.00328
3735.67171,0.00341
3733.74312,0.00345
3731.81454,0.00372
3729.88595,0.00407
3727.95736,0.00541
3726.02878,0.00651
3724.10019,0.00703
3722.17161,0.00835
3720.24302,0.00958
3718.31443,0.01144
3716.38585,0.01354
3714.45726,0.01629
3712.52867,0.01924
3710.60009,0.02093
3708.67150,0.02353
3706.74291,0.02659
3704.81433,0.03014
3702.88574,0.03349
3700.95716,0.03562
3699.02857,0.03778
3697.09998,0.03926
3695.17140,0.04038
3693.24281,0.04112
3691.31422,0.04241
3689.38564,0.04369
3687.45705,0.04392
3685.52846,0.04580
3683.59988,0.04875
3681.67129,0.05184
3679.74271,0.05489
3677.81412,0.05895
3675.88553,0.06261
3673.95695,0.06487
3672.02836,0.06944
3670.09977,0.07337
3668.17119,0.07618
3666.24260,0.08034
3664.31402,0.08423
3662.38543,0.08818
3660.45684,0.09181
3658.52826,0.09562
3656.59967,0.09905
3654.67108,0.10160
3652.74250,0.10540
3650.81391,0.10881
3648.88532,0.11069
3646.95674,0.11249
3645.02815,0.11525
3643.09957,0.11822
3641.17098,0.12089
3639.24239,0.12361
3637.31381,0.12600
3635.38522,0.12853
3633.45663,0.13098
3631.52805,0.13420
3629.59946,0.13686
3627.67088,0.13695
3625.74229,0.13829
3623.81370,0.14044
3621.88512,0.14192
3619.95653,0.14237
3618.02794,0.14107
3616.09936,0.14051
3614.17077,0.14037
3612.24218,0.14000
3610.31360,0.14000
3608.38501,0.13963
3606.45643,0.13927
3604.52784,0.13957
3602.59925,0.14013
3600.67067,0.14030
3598.74208,0.14041
3596.81349,0.14085
3594.88491,0.14129
3592.95632,0.14159
3591.02774,0.14235
3589.09915,0.14342
3587.17056,0.14362
3585.24198,0.14400
3583.31339,0.14526
3581.38480,0.14646
3579.45622,0.14743
3577.52763,0.14846
3575.59904,0.14977
3573.67046,0.15102
3571.74187,0.15212
3569.81329,0.15366
3567.88470,0.15512
3565.95611,0.15595
3564.02753,0.15711
3562.09894,0.15871
3560.17035,0.16001
3558.24177,0.16122
3556.31318,0.16252
3554.38459,0.16398
3552.45601,0.16536
3550.52742,0.16663
3548.59884,0.16822
3546.67025,0.16942
3544.74166,0.17040
3542.81308,0.17181
3540.88449,0.17324
3538.95590,0.17448
3537.02732,0.17561
3535.09873,0.17682
3533.17015,0.17821
3531.24156,0.17976
3529.31297,0.18118
3527.38439,0.18229
3525.45580,0.18355
3523.52721,0.18475
3521.59863,0.18569
3519.67004,0.18684
3517.74145,0.18817
3515.81287,0.18943
3513.88428,0.19061
3511.95570,0.19164
3510.02711,0.19277
3508.09852,0.19399
3506.16994,0.19512
3504.24135,0.19630
3502.31276,0.19733
3500.38418,0.19845
3498.45559,0.19983
3496.52701,0.20092
3494.59842,0.20180
3492.66983,0.20279
3490.74125,0.20382
3488.81266,0.20462
3486.88407,0.20548
3484.95549,0.20660
3483.02690,0.20767
3481.09831,0.20869
3479.16973,0.20961
3477.24114,0.21047
3475.31256,0.21118
3473.38397,0.21189
3471.45538,0.21270
3469.52680,0.21337
3467.59821,0.21426
3465.66962,0.21525
3463.74104,0.21598
3461.81245,0.21654
3459.88386,0.21717
3457.95528,0.21793
3456.02669,0.21870
3454.09811,0.21967
3452.16952,0.22052
3450.24093,0.22108
3448.31235,0.22170
3446.38376,0.22236
3444.45517,0.22303
3442.52659,0.22364
3440.59800,0.22412
3438.66942,0.22465
3436.74083,0.22527
3434.81224,0.22595
3432.88366,0.22647
3430.95507,0.22685
3429.02648,0.22735
3427.09790,0.22778
3425.16931,0.22828
3423.24072,0.22894
3421.31214,0.22944
3419.38355,0.22989
3417.45497,0.23034
3415.52638,0.23085
3413.59779,0.23132
3411.66921,0.23167
3409.74062,0.23188
3407.81203,0.23213
3405.88345,0.23253
3403.95486,0.23262
3402.02628,0.23282
3400.09769,0.23330
3398.16910,0.23356
3396.24052,0.23371
3394.31193,0.23402
3392.38334,0.23442
3390.45476,0.23450
3388.52617,0.23467
3386.59758,0.23508
3384.66900,0.23545
3382.74041,0.23569
3380.81183,0.23573
3378.88324,0.23596
3376.95465,0.23607
3375.02607,0.23604
3373.09748,0.23624
3371.16889,0.23650
3369.24031,0.23689
3367.31172,0.23710
3365.38314,0.23728
3363.45455,0.23750
3361.52596,0.23765
3359.59738,0.23789
3357.66879,0.23796
3355.74020,0.23798
3353.81162,0.23796
3351.88303,0.23790
3349.95444,0.23807
3348.02586,0.23827
3346.09727,0.23846
3344.16869,0.23868
3342.24010,0.23874
3340.31151,0.23868
3338.38293,0.23873
3336.45434,0.23877
3334.52575,0.23877
3332.59717,0.23881
3330.66858,0.23873
3328.73999,0.23858
3326.81141,0.23869
3324.88282,0.23885
3322.95424,0.23876
3321.02565,0.23878
3319.09706,0.23873
3317.16848,0.23845
3315.23989,0.23840
3313.31130,0.23849
3311.38272,0.23847
3309.45413,0.23822
3307.52555,0.23790
3305.59696,0.23779
3303.66837,0.23779
3301.73979,0.23775
3299.81120,0.23760
3297.88261,0.23728
3295.95403,0.23690
3294.02544,0.23673
3292.09685,0.23656
3290.16827,0.23611
3288.23968,0.23570
3286.31110,0.23541
3284.38251,0.23504
3282.45392,0.23446
3280.52534,0.23376
3278.59675,0.23320
3276.66816,0.23270
3274.73958,0.23207
3272.81099,0.23117
3270.88241,0.23030
3268.95382,0.22963
3267.02523,0.22890
3265.09665,0.22811
3263.16806,0.22701
3261.23947,0.22578
3259.31089,0.22482
3257.38230,0.22391
3255.45371,0.22303
3253.52513,0.22209
3251.59654,0.22095
3249.66796,0.21986
3247.73937,0.21902
3245.81078,0.21828
3243.88220,0.21741
3241.95361,0.21647
3240.02502,0.21562
3238.09644,0.21477
3236.16785,0.21380
3234.23927,0.21292
3232.31068,0.21211
3230.38209,0.21134
3228.45351,0.21060
3226.52492,0.20973
3224.59633,0.20889
3222.66775,0.20808
3220.73916,0.20724
3218.81057,0.20641
3216.88199,0.20552
3214.95340,0.20470
3213.02482,0.20404
3211.09623,0.20342
3209.16764,0.20265
3207.23906,0.20180
3205.31047,0.20100
3203.38188,0.20009
3201.45330,0.19910
3199.52471,0.19821
3197.59612,0.19743
3195.66754,0.19659
3193.73895,0.19573
3191.81037,0.19494
3189.88178,0.19405
3187.95319,0.19313
3186.02461,0.19219
3184.09602,0.19118
3182.16743,0.19023
3180.23885,0.18931
3178.31026,0.18835
3176.38168,0.18746
3174.45309,0.18665
3172.52450,0.18578
3170.59592,0.18491
3168.66733,0.18403
3166.73874,0.18306
3164.81016,0.18213
3162.88157,0.18138
3160.95298,0.18066
3159.02440,0.17972
3157.09581,0.17878
3155.16723,0.17807
3153.23864,0.17732
3151.31005,0.17656
3149.38147,0.17585
3147.45288,0.17503
3145.52429,0.17421
3143.59571,0.17343
3141.66712,0.17264
3139.73854,0.17201
3137.80995,0.17139
3135.88136,0.17076
3133.95278,0.17021
3132.02419,0.16957
3130.09560,0.16892
3128.16702,0.16829
3126.23843,0.16762
3124.30984,0.16720
3122.38126,0.16683
3120.45267,0.16628
3118.52409,0.16582
3116.59550,0.16549
3114.66691,0.16508
3112.73833,0.16456
3110.80974,0.16407
3108.88115,0.16372
3106.95257,0.16336
3105.02398,0.16299
3103.09540,0.16273
3101.16681,0.16238
3099.23822,0.16196
3097.30964,0.16167
3095.38105,0.16133
3093.45246,0.16095
3091.52388,0.16072
3089.59529,0.16046
3087.66670,0.16002
3085.73812,0.15955
3083.80953,0.15911
3081.88095,0.15874
3079.95236,0.15839
3078.02377,0.15785
3076.09519,0.15731
3074.16660,0.15689
3072.23801,0.15634
3070.30943,0.15582
3068.38084,0.15531
3066.45225,0.15466
3064.52367,0.15397
3062.59508,0.15325
3060.66650,0.15249
3058.73791,0.15178
3056.80932,0.15117
3054.88074,0.15045
3052.95215,0.14969
3051.02356,0.14905
3049.09498,0.14830
3047.16639,0.14755
3045.23781,0.14689
3043.30922,0.14635
3041.38063,0.14588
3039.45205,0.14518
3037.52346,0.14443
3035.59487,0.14388
3033.66629,0.14338
3031.73770,0.14291
3029.80911,0.14244
3027.88053,0.14190
3025.95194,0.14151
3024.02336,0.14119
3022.09477,0.14076
3020.16618,0.14048
3018.23760,0.14036
3016.30901,0.14023
3014.38042,0.14002
3012.45184,0.13990
3010.52325,0.14008
3008.59467,0.14037
3006.66608,0.14067
3004.73749,0.14097
3002.80891,0.14139
3000.88032,0.14202
2998.95173,0.14270
2997.02315,0.14355
2995.09456,0.14441
2993.16597,0.14532
2991.23739,0.14650
2989.30880,0.14785
2987.38022,0.14935
2985.45163,0.15099
2983.52304,0.15278
2981.59446,0.15474
2979.66587,0.15686
2977.73728,0.15907
2975.80870,0.16145
2973.88011,0.16401
2971.95153,0.16665
2970.02294,0.16951
2968.09435,0.17247
2966.16577,0.17540
2964.23718,0.17838
2962.30859,0.18119
2960.38001,0.18372
2958.45142,0.18599
2956.52283,0.18799
2954.59425,0.18972
2952.66566,0.19132
2950.73708,0.19313
2948.80849,0.19541
2946.87990,0.19839
2944.95132,0.20204
2943.02273,0.20629
2941.09414,0.21115
2939.16556,0.21644
2937.23697,0.22196
2935.30838,0.22754
2933.37980,0.23311
2931.45121,0.23841
2929.52263,0.24326
2927.59404,0.24753
2925.66545,0.25084
2923.73687,0.25290
2921.80828,0.25352
2919.87969,0.25241
2917.95111,0.24834
2916.02252,0.24024
2914.09394,0.22974
2912.16535,0.21968
2910.23676,0.21149
2908.30818,0.20501
2906.37959,0.19974
2904.45100,0.19549
2902.52242,0.19187
2900.59383,0.18850
2898.66524,0.18526
2896.73666,0.18219
2894.80807,0.17928
2892.87949,0.17641
2890.95090,0.17369
2889.02231,0.17110
2887.09373,0.16868
2885.16514,0.16663
2883.23655,0.16500
2881.30797,0.16370
2879.37938,0.16280
2877.45080,0.16243
2875.52221,0.16240
2873.59362,0.16263
2871.66504,0.16302
2869.73645,0.16338
2867.80786,0.16404
2865.87928,0.16547
2863.95069,0.16801
2862.02210,0.17186
2860.09352,0.17700
2858.16493,0.18339
2856.23635,0.19020
2854.30776,0.19574
2852.37917,0.19812
2850.45059,0.19551
2848.52200,0.18691
2846.59341,0.17433
2844.66483,0.16145
2842.73624,0.15033
2840.80766,0.14133
2838.87907,0.13415
2836.95048,0.12837
2835.02190,0.12369
2833.09331,0.11990
2831.16472,0.11670
2829.23614,0.11388
2827.30755,0.11147
2825.37896,0.10934
2823.45038,0.10745
2821.52179,0.10569
2819.59321,0.10397
2817.66462,0.10244
2815.73603,0.10106
2813.80745,0.09979
2811.87886,0.09850
2809.95027,0.09725
2808.02169,0.09620
2806.09310,0.09512
2804.16451,0.09405
2802.23593,0.09316
2800.30734,0.09231
2798.37876,0.09139
2796.45017,0.09046
2794.52158,0.08959
2792.59300,0.08874
2790.66441,0.08800
2788.73582,0.08735
2786.80724,0.08669
2784.87865,0.08595
2782.95007,0.08512
2781.02148,0.08440
2779.09289,0.08381
2777.16431,0.08327
2775.23572,0.08271
2773.30713,0.08211
2771.37855,0.08158
2769.44996,0.08112
2767.52137,0.08061
2765.59279,0.08009
2763.66420,0.07962
2761.73562,0.07910
2759.80703,0.07862
2757.87844,0.07819
2755.94986,0.07772
2754.02127,0.07735
2752.09268,0.07701
2750.16410,0.07666
2748.23551,0.07632
2746.30693,0.07599
2744.37834,0.07570
2742.44975,0.07534
2740.52117,0.07491
2738.59258,0.07454
2736.66399,0.07423
2734.73541,0.07386
2732.80682,0.07348
2730.87823,0.07305
2728.94965,0.07256
2727.02106,0.07215
2725.09248,0.07164
2723.16389,0.07105
2721.23530,0.07061
2719.30672,0.07023
2717.37813,0.06983
2715.44954,0.06930
2713.52096,0.06873
2711.59237,0.06829
2709.66379,0.06789
2707.73520,0.06742
2705.80661,0.06697
2703.87803,0.06664
2701.94944,0.06628
2700.02085,0.06586
2698.09227,0.06548
2696.16368,0.06510
2694.23509,0.06474
2692.30651,0.06442
2690.37792,0.06406
2688.44934,0.06367
2686.52075,0.06341
2684.59216,0.06316
2682.66358,0.06280
2680.73499,0.06251
2678.80640,0.06222
2676.87782,0.06183
2674.94923,0.06139
2673.02064,0.06103
2671.09206,0.06072
2669.16347,0.06039
2667.23489,0.05998
2665.30630,0.05955
2663.37771,0.05918
2661.44913,0.05875
2659.52054,0.05834
2657.59195,0.05802
2655.66337,0.05769
2653.73478,0.05736
2651.80620,0.05698
2649.87761,0.05658
2647.94902,0.05621
2646.02044,0.05589
2644.09185,0.05557
2642.16326,0.05526
2640.23468,0.05498
2638.30609,0.05458
2636.37750,0.05419
2634.44892,0.05387
2632.52033,0.05356
2630.59175,0.05327
2628.66316,0.05296
2626.73457,0.05257
2624.80599,0.05210
2622.87740,0.05168
2620.94881,0.05134
2619.02023,0.05100
2617.09164,0.05060
2615.16306,0.05021
2613.23447,0.04996
2611.30588,0.04972
2609.37730,0.04927
2607.44871,0.04880
2605.52012,0.04853
2603.59154,0.04828
2601.66295,0.04793
2599.73436,0.04751
2597.80578,0.04709
2595.87719,0.04672
2593.94861,0.04634
2592.02002,0.04600
2590.09143,0.04563
2588.16285,0.04525
2586.23426,0.04499
2584.30567,0.04470
2582.37709,0.04431
2580.44850,0.04388
2578.51991,0.04351
2576.59133,0.04322
2574.66274,0.04290
2572.73416,0.04259
2570.80557,0.04231
2568.87698,0.04195
2566.94840,0.04157
2565.01981,0.04130
2563.09122,0.04112
2561.16264,0.04083
2559.23405,0.04052
2557.30547,0.04033
2555.37688,0.04012
2553.44829,0.03978
2551.51971,0.03947
2549.59112,0.03922
2547.66253,0.03894
2545.73395,0.03866
2543.80536,0.03840
2541.87677,0.03816
2539.94819,0.03788
2538.01960,0.03764
2536.09102,0.03746
2534.16243,0.03723
2532.23384,0.03689
2530.30526,0.03656
2528.37667,0.03631
2526.44808,0.03607
2524.51950,0.03574
2522.59091,0.03537
2520.66233,0.03514
2518.73374,0.03490
2516.80515,0.03454
2514.87657,0.03431
2512.94798,0.03405
2511.01939,0.03368
2509.09081,0.03337
2507.16222,0.03312
2505.23363,0.03287
2503.30505,0.03254
2501.37646,0.03229
2499.44788,0.03208
2497.51929,0.03170
2495.59070,0.03136
2493.66212,0.03102
2491.73353,0.03066
2489.80494,0.03033
2487.87636,0.03000
2485.94777,0.02979
2484.01919,0.02951
2482.09060,0.02916
2480.16201,0.02879
2478.23343,0.02845
2476.30484,0.02818
2474.37625,0.02787
2472.44767,0.02755
2470.51908,0.02719
2468.59049,0.02683
2466.66191,0.02657
2464.73332,0.02625
2462.80474,0.02588
2460.87615,0.02555
2458.94756,0.02520
2457.01898,0.02485
2455.09039,0.02454
2453.16180,0.02423
2451.23322,0.02390
2449.30463,0.02363
2447.37604,0.02333
2445.44746,0.02303
2443.51887,0.02282
2441.59029,0.02259
2439.66170,0.02224
2437.73311,0.02184
2435.80453,0.02145
2433.87594,0.02109
2431.94735,0.02077
2430.01877,0.02049
2428.09018,0.02018
2426.16160,0.01993
2424.23301,0.01969
2422.30442,0.01938
2420.37584,0.01910
2418.44725,0.01877
2416.51866,0.01844
2414.59008,0.01820
2412.66149,0.01790
2410.73290,0.01754
2408.80432,0.01721
2406.87573,0.01697
2404.94715,0.01670
2403.01856,0.01632
2401.08997,0.01599
2399.16139,0.01574
2397.23280,0.01549
2395.30421,0.01523
2393.37563,0.01496
2391.44704,0.01470
2389.51846,0.01449
2387.58987,0.01427
2385.66128,0.01401
2383.73270,0.01383
2381.80411,0.01367
2379.87552,0.01346
2377.94694,0.01331
2376.01835,0.01318
2374.08976,0.01305
2372.16118,0.01285
2370.23259,0.01260
2368.30401,0.01236
2366.37542,0.01210
2364.44683,0.01180
2362.51825,0.01150
2360.58966,0.01118
2358.66107,0.01080
2356.73249,0.01052
2354.80390,0.01022
2352.87532,0.00976
2350.94673,0.00963
2349.01814,0.01001
2347.08956,0.01031
2345.16097,0.01023
2343.23238,0.00993
2341.30380,0.00961
2339.37521,0.00936
2337.44662,0.00918
2335.51804,0.00895
2333.58945,0.00872
2331.66087,0.00856
2329.73228,0.00838
2327.80369,0.00815
2325.87511,0.00799
2323.94652,0.00781
2322.01793,0.00760
2320.08935,0.00747
2318.16076,0.00729
2316.23217,0.00708
2314.30359,0.00693
2312.37500,0.00679
2310.44642,0.00665
2308.51783,0.00651
2306.58924,0.00637
2304.66066,0.00622
2302.73207,0.00610
2300.80348,0.00599
2298.87490,0.00582
2296.94631,0.00566
2295.01773,0.00552
2293.08914,0.00544
2291.16055,0.00535
2289.23197,0.00517
2287.30338,0.00499
2285.37479,0.00488
2283.44621,0.00479
2281.51762,0.00466
2279.58903,0.00448
2277.66045,0.00431
2275.73186,0.00417
2273.80328,0.00400
2271.87469,0.00387
2269.94610,0.00387
2268.01752,0.00383
2266.08893,0.00364
2264.16034,0.00347
2262.23176,0.00341
2260.30317,0.00333
2258.37459,0.00317
2256.44600,0.00302
2254.51741,0.00297
2252.58883,0.00291
2250.66024,0.00276
2248.73165,0.00264
2246.80307,0.00252
2244.87448,0.00242
2242.94589,0.00232
2241.01731,0.00222
2239.08872,0.00212
2237.16014,0.00204
2235.23155,0.00200
2233.30296,0.00193
2231.37438,0.00188
2229.44579,0.00183
2227.51720,0.00167
2225.58862,0.00146
2223.66003,0.00133
2221.73145,0.00132
2219.80286,0.00131
2217.87427,0.00130
2215.94569,0.00125
2214.01710,0.00112
2212.08851,0.00099
2210.15993,0.00088
2208.23134,0.00079
2206.30275,0.00073
2204.37417,0.00074
2202.44558,0.00071
2200.51700,0.00063
2198.58841,0.00057
2196.65982,0.00053
2194.73124,0.00051
2192.80265,0.00046
2190.87406,0.00041
2188.94548,0.00043
2187.01689,0.00045
2185.08830,0.00048
2183.15972,0.00046
2181.23113,0.00040
2179.30255,0.00037
2177.37396,0.00036
2175.44537,0.00034
2173.51679,0.00036
2171.58820,0.00021
2169.65961,0.00000
2167.73103,0.00016
2165.80244,0.00033
2163.87386,0.00029
2161.94527,0.00030
2160.01668,0.00028
2158.08810,0.00027
2156.15951,0.00025
2154.23092,0.00022
2152.30234,0.00034
2150.37375,0.00037
2148.44516,0.00030
2146.51658,0.00031
2144.58799,0.00033
2142.65941,0.00033
2140.73082,0.00033
2138.80223,0.00032
2136.87365,0.00029
2134.94506,0.00023
2133.01647,0.00019
2131.08789,0.00014
2129.15930,0.00012
2127.23072,0.00013
2125.30213,0.00017
2123.37354,0.00020
2121.44496,0.00020
2119.51637,0.00015
2117.58778,0.00010
2115.65920,0.00010
2113.73061,0.00011
2111.80202,0.00012
2109.87344,0.00012
2107.94485,0.00011
2106.01627,0.00016
2104.08768,0.00016
2102.15909,0.00011
2100.23051,0.00005
2098.30192,0.00002
2096.37333,0.00000
2094.44475,0.00002
2092.51616,0.00010
2090.58758,0.00013
2088.65899,0.00007
2086.73040,0.00006
2084.80182,0.00010
2082.87323,0.00014
2080.94464,0.00008
2079.01606,0.00000
2077.08747,0.00002
2075.15888,0.00011
2073.23030,0.00017
2071.30171,0.00021
2069.37313,0.00024
2067.44454,0.00019
2065.51595,0.00010
2063.58737,0.00008
2061.65878,0.00006
2059.73019,0.00008
2057.80161,0.00017
2055.87302,0.00023
2053.94443,0.00028
2052.01585,0.00035
2050.08726,0.00042
2048.15868,0.00042
2046.23009,0.00050
2044.30150,0.00071
2042.37292,0.00088
2040.44433,0.00106
2038.51574,0.00123
2036.58716,0.00138
2034.65857,0.00153
2032.72999,0.00166
2030.80140,0.00181
2028.87281,0.00194
2026.94423,0.00204
2025.01564,0.00207
2023.08705,0.00207
2021.15847,0.00214
2019.22988,0.00224
2017.30129,0.00237
2015.37271,0.00244
2013.44412,0.00251
2011.51554,0.00264
2009.58695,0.00279
2007.65836,0.00293
2005.72978,0.00300
2003.80119,0.00306
2001.87260,0.00305
1999.94402,0.00306
1998.01543,0.00314
1996.08685,0.00316
1994.15826,0.00322
1992.22967,0.00318
1990.30109,0.00300
1988.37250,0.00287
1986.44391,0.00278
1984.51533,0.00271
1982.58674,0.00264
1980.65815,0.00257
1978.72957,0.00250
1976.80098,0.00241
1974.87240,0.00231
1972.94381,0.00223
1971.01522,0.00215
1969.08664,0.00206
1967.15805,0.00187
1965.22946,0.00156
1963.30088,0.00139
1961.37229,0.00129
1959.44371,0.00109
1957.51512,0.00097
1955.58653,0.00087
1953.65795,0.00077
1951.72936,0.00071
1949.80077,0.00070
1947.87219,0.00066
1945.94360,0.00059
1944.01501,0.00054
1942.08643,0.00029
1940.15784,0.00001
1938.22926,-0.00001
1936.30067,-0.00005
1934.37208,-0.00009
1932.44350,-0.00010
1930.51491,-0.00021
1928.58632,-0.00026
1926.65774,-0.00016
1924.72915,0.00000
1922.80056,-0.00007
1920.87198,-0.00009
1918.94339,0.00005
1917.01481,0.00006
1915.08622,0.00026
1913.15763,0.00069
1911.22905,0.00111
1909.30046,0.00153
1907.37187,0.00197
1905.44329,0.00249
1903.51470,0.00297
1901.58612,0.00341
1899.65753,0.00385
1897.72894,0.00432
1895.80036,0.00482
1893.87177,0.00515
1891.94318,0.00560
1890.01460,0.00600
1888.08601,0.00610
1886.15742,0.00643
1884.22884,0.00678
1882.30025,0.00695
1880.37167,0.00706
1878.44308,0.00706
1876.51449,0.00707
1874.58591,0.00715
1872.65732,0.00733
1870.72873,0.00746
1868.80015,0.00721
1866.87156,0.00674
1864.94298,0.00649
1863.01439,0.00611
1861.08580,0.00549
1859.15722,0.00491
1857.22863,0.00425
1855.30004,0.00360
1853.37146,0.00290
1851.44287,0.00230
1849.51428,0.00180
1847.58570,0.00137
1845.65711,0.00123
1843.72853,0.00058
1841.79994,0.00000
1839.87135,-0.00011
1837.94277,-0.00033
1836.01418,-0.00052
1834.08559,-0.00056
1832.15701,-0.00031
1830.22842,-0.00030
1828.29984,-0.00047
1826.37125,-0.00012
1824.44266,0.00008
1822.51408,0.00030
1820.58549,0.00082
1818.65690,0.00138
1816.72832,0.00203
1814.79973,0.00270
1812.87114,0.00352
1810.94256,0.00441
1809.01397,0.00534
1807.08539,0.00645
1805.15680,0.00771
1803.22821,0.00924
1801.29963,0.01081
1799.37104,0.01225
1797.44245,0.01385
1795.51387,0.01594
1793.58528,0.01823
1791.65669,0.02001
1789.72811,0.02174
1787.79952,0.02415
1785.87094,0.02650
1783.94235,0.02875
1782.01376,0.03117
1780.08518,0.03345
1778.15659,0.03562
1776.22800,0.03791
1774.29942,0.04051
1772.37083,0.04255
1770.44225,0.04417
1768.51366,0.04636
1766.58507,0.04842
1764.65649,0.05087
1762.72790,0.05357
1760.79931,0.05584
1758.87073,0.05867
1756.94214,0.06180
1755.01355,0.06510
1753.08497,0.06907
1751.15638,0.07305
1749.22780,0.07696
1747.29921,0.08139
1745.37062,0.08611
1743.44204,0.09106
1741.51345,0.09625
1739.58486,0.10085
1737.65628,0.10522
1735.72769,0.10992
1733.79911,0.11300
1731.87052,0.11511
1729.94193,0.11820
1728.01335,0.12089
1726.08476,0.12363
1724.15617,0.12656
1722.22759,0.12940
1720.29900,0.13300
1718.37041,0.13615
1716.44183,0.13823
1714.51324,0.14029
1712.58466,0.14281
1710.65607,0.14537
1708.72748,0.14777
1706.79890,0.15026
1704.87031,0.15236
1702.94172,0.15531
1701.01314,0.15857
1699.08455,0.16078
1697.15596,0.16414
1695.22738,0.16694
1693.29879,0.16932
1691.37021,0.17303
1689.44162,0.17607
1687.51303,0.17965
1685.58445,0.18340
1683.65586,0.18539
1681.72727,0.18838
1679.79869,0.19205
1677.87010,0.19562
1675.94152,0.19877
1674.01293,0.20128
1672.08434,0.20433
1670.15576,0.20700
1668.22717,0.20880
1666.29858,0.21084
1664.37000,0.21318
1662.44141,0.21454
1660.51282,0.21543
1658.58424,0.21633
1656.65565,0.21713
1654.72707,0.21843
1652.79848,0.21664
1650.86989,0.21430
1648.94131,0.21488
1647.01272,0.21459
1645.08413,0.21320
1643.15555,0.21248
1641.22696,0.21232
1639.29838,0.21229
1637.36979,0.21259
1635.44120,0.21177
1633.51262,0.21023
1631.58403,0.20989
1629.65544,0.20899
1627.72686,0.20738
1625.79827,0.20533
1623.86968,0.20281
1621.94110,0.19965
1620.01251,0.19704
1618.08393,0.19523
1616.15534,0.19161
1614.22675,0.18847
1612.29817,0.18634
1610.36958,0.18383
1608.44099,0.18147
1606.51241,0.17940
1604.58382,0.17774
1602.65524,0.17577
1600.72665,0.17376
1598.79806,0.17167
1596.86948,0.16979
1594.94089,0.16809
1593.01230,0.16615
1591.08372,0.16437
1589.15513,0.16250
1587.22654,0.16080
1585.29796,0.15889
1583.36937,0.15699
1581.44079,0.15515
1579.51220,0.15379
1577.58361,0.15311
1575.65503,0.15111
1573.72644,0.14967
1571.79785,0.14988
1569.86927,0.14947
1567.94068,0.14873
1566.01209,0.14885
1564.08351,0.14927
1562.15492,0.15045
1560.22634,0.15189
1558.29775,0.15121
1556.36916,0.15118
1554.44058,0.15218
1552.51199,0.15260
1550.58340,0.15320
1548.65482,0.15341
1546.72623,0.15388
1544.79765,0.15435
1542.86906,0.15452
1540.94047,0.15457
1539.01189,0.15270
1537.08330,0.15172
1535.15471,0.15180
1533.22613,0.15068
1531.29754,0.14934
1529.36895,0.14864
1527.44037,0.14790
1525.51178,0.14655
1523.58320,0.14586
1521.65461,0.14511
1519.72602,0.14397
1517.79744,0.14355
1515.86885,0.14230
1513.94026,0.14022
1512.01168,0.13759
1510.08309,0.13485
1508.15451,0.13245
1506.22592,0.12791
1504.29733,0.12298
1502.36875,0.11978
1500.44016,0.11655
1498.51157,0.11297
1496.58299,0.10889
1494.65440,0.10486
1492.72581,0.10227
1490.79723,0.09994
1488.86864,0.09733
1486.94006,0.09537
1485.01147,0.09407
1483.08288,0.09356
1481.15430,0.09380
1479.22571,0.09507
1477.29712,0.09740
1475.36854,0.10079
1473.43995,0.10565
1471.51137,0.11120
1469.58278,0.11710
1467.65419,0.12248
1465.72561,0.12534
1463.79702,0.12630
1461.86843,0.12692
1459.93985,0.12816
1458.01126,0.12943
1456.08267,0.12915
1454.15409,0.12882
1452.22550,0.12877
1450.29692,0.12846
1448.36833,0.12810
1446.43974,0.12745
1444.51116,0.12709
1442.58257,0.12683
1440.65398,0.12657
1438.72540,0.12673
1436.79681,0.12630
1434.86822,0.12549
1432.93964,0.12528
1431.01105,0.12510
1429.08247,0.12468
1427.15388,0.12451
1425.22529,0.12463
1423.29671,0.12479
1421.36812,0.12533
1419.43953,0.12559
1417.51095,0.12510
1415.58236,0.12495
1413.65378,0.12471
1411.72519,0.12430
1409.79660,0.12389
1407.86802,0.12322
1405.93943,0.12253
1404.01084,0.12146
1402.08226,0.12056
1400.15367,0.11981
1398.22508,0.11891
1396.29650,0.11821
1394.36791,0.11740
1392.43933,0.11704
1390.51074,0.11727
1388.58215,0.11746
1386.65357,0.11738
1384.72498,0.11737
1382.79639,0.11815
1380.86781,0.11920
1378.93922,0.11969
1377.01064,0.11946
1375.08205,0.11858
1373.15346,0.11727
1371.22488,0.11592
1369.29629,0.11467
1367.36770,0.11323
1365.43912,0.11174
1363.51053,0.11018
1361.58194,0.10856
1359.65336,0.10732
1357.72477,0.10635
1355.79619,0.10526
1353.86760,0.10435
1351.93901,0.10381
1350.01043,0.10313
1348.08184,0.10236
1346.15325,0.10168
1344.22467,0.10113
1342.29608,0.10074
1340.36750,0.10026
1338.43891,0.09964
1336.51032,0.09901
1334.58174,0.09857
1332.65315,0.09819
1330.72456,0.09774
1328.79598,0.09738
1326.86739,0.09707
1324.93880,0.09684
1323.01022,0.09642
1321.08163,0.09590
1319.15305,0.09565
1317.22446,0.09541
1315.29587,0.09508
1313.36729,0.09480
1311.43870,0.09453
1309.51011,0.09424
1307.58153,0.09393
1305.65294,0.09372
1303.72435,0.09364
1301.79577,0.09344
1299.86718,0.09329
1297.93860,0.09339
1296.01001,0.09358
1294.08142,0.09405
1292.15284,0.09472
1290.22425,0.09554
1288.29566,0.09668
1286.36708,0.09795
1284.43849,0.09931
1282.50991,0.10087
1280.58132,0.10261
1278.65273,0.10448
1276.72415,0.10633
1274.79556,0.10822
1272.86697,0.11029
1270.93839,0.11252
1269.00980,0.11479
1267.08121,0.11718
1265.15263,0.11975
1263.22404,0.12275
1261.29546,0.12633
1259.36687,0.13024
1257.43828,0.13469
1255.50970,0.13990
1253.58111,0.14559
1251.65252,0.15146
1249.72394,0.15736
1247.79535,0.16319
1245.86677,0.16880
1243.93818,0.17409
1242.00959,0.17903
1240.08101,0.18370
1238.15242,0.18794
1236.22383,0.19172
1234.29525,0.19516
1232.36666,0.19831
1230.43807,0.20129
1228.50949,0.20378
1226.58090,0.20601
1224.65232,0.20837
1222.72373,0.21048
1220.79514,0.21246
1218.86656,0.21438
1216.93797,0.21608
1215.00938,0.21776
1213.08080,0.21955
1211.15221,0.22127
1209.22363,0.22280
1207.29504,0.22430
1205.36645,0.22575
1203.43787,0.22715
1201.50928,0.22872
1199.58069,0.23010
1197.65211,0.23114
1195.72352,0.23241
1193.79493,0.23370
1191.86635,0.23474
1189.93776,0.23597
1188.00918,0.23720
1186.08059,0.23835
1184.15200,0.23994
1182.22342,0.24182
1180.29483,0.24347
1178.36624,0.24520
1176.43766,0.24744
1174.50907,0.24985
1172.58048,0.25228
1170.65190,0.25479
1168.72331,0.25745
1166.79473,0.26004
1164.86614,0.26232
1162.93755,0.26446
1161.00897,0.26606
1159.08038,0.26695
1157.15179,0.26773
1155.22321,0.26859
1153.29462,0.26961
1151.36604,0.27085
1149.43745,0.27217
1147.50886,0.27349
1145.58028,0.27518
1143.65169,0.27724
1141.72310,0.27950
1139.79452,0.28225
1137.86593,0.28501
1135.93734,0.28769
1134.00876,0.29084
1132.08017,0.29398
1130.15159,0.29709
1128.22300,0.30119
1126.29441,0.30613
1124.36583,0.31064
1122.43724,0.31513
1120.50865,0.32004
1118.58007,0.32480
1116.65148,0.32978
1114.72290,0.33542
1112.79431,0.34179
1110.86572,0.34814
1108.93714,0.35369
1107.00855,0.35888
1105.07996,0.36353
1103.15138,0.36734
1101.22279,0.37032
1099.29420,0.37232
1097.36562,0.37364
1095.43703,0.37459
1093.50845,0.37485
1091.57986,0.37410
1089.65127,0.37325
1087.72269,0.37239
1085.79410,0.37047
1083.86551,0.36799
1081.93693,0.36569
1080.00834,0.36330
1078.07976,0.36102
1076.15117,0.35856
1074.22258,0.35566
1072.29400,0.35295
1070.36541,0.35029
1068.43682,0.34745
1066.50824,0.34475
1064.57965,0.34221
1062.65106,0.33923
1060.72248,0.33587
1058.79389,0.33261
1056.86531,0.32885
1054.93672,0.32509
1053.00813,0.32184
1051.07955,0.31858
1049.15096,0.31562
1047.22237,0.31291
1045.29379,0.31032
1043.36520,0.30860
1041.43661,0.30770
1039.50803,0.30648
1037.57944,0.30447
1035.65086,0.30235
1033.72227,0.30037
1031.79368,0.29809
1029.86510,0.29506
1027.93651,0.29138
1026.00792,0.28769
1024.07934,0.28403
1022.15075,0.27998
1020.22217,0.27575
1018.29358,0.27177
1016.36499,0.26803
1014.43641,0.26444
1012.50782,0.26077
1010.57923,0.25713
1008.65065,0.25353
1006.72206,0.24960
1004.79347,0.24545
1002.86489,0.24122
1000.93630,0.23675
999.00772,0.23189
997.07913,0.22696
995.15054,0.22202
993.22196,0.21674
991.29337,0.21176
989.36478,0.20697
987.43620,0.20171
985.50761,0.19642
983.57903,0.19078
981.65044,0.18441
979.72185,0.17785
977.79327,0.17107
975.86468,0.16417
973.93609,0.15738
972.00751,0.15054
970.07892,0.14397
968.15033,0.13780
966.22175,0.13208
964.29316,0.12682
962.36458,0.12182
960.43599,0.11714
958.50740,0.11298
956.57882,0.10956
954.65023,0.10672
952.72164,0.10417
950.79306,0.10169
948.86447,0.09910
946.93589,0.09695
945.00730,0.09553
943.07871,0.09424
941.15013,0.09273
939.22154,0.09128
937.29295,0.09008
935.36437,0.08905
933.43578,0.08777
931.50719,0.08624
929.57861,0.08478
927.65002,0.08328
925.72144,0.08218
923.79285,0.08154
921.86426,0.08073
919.93568,0.07998
918.00709,0.07946
916.07850,0.07888
914.14992,0.07794
912.22133,0.07649
910.29274,0.07405
908.36416,0.07047
906.43557,0.06656
904.50699,0.06231
902.57840,0.05771
900.64981,0.05336
898.72123,0.04936
896.79264,0.04573
894.86405,0.04232
892.93547,0.03907
891.00688,0.03623
889.07830,0.03355
887.14971,0.03083
885.22112,0.02824
883.29254,0.02563
881.36395,0.02305
879.43536,0.02078
877.50678,0.01849
875.57819,0.01608
873.64960,0.01359
871.72102,0.01117
869.79243,0.00902
867.86385,0.00712
865.93526,0.00532
864.00667,0.00322
862.07809,0.00155
860.14950,0.00066
858.22091,0.00000
856.29233,-0.00029
854.36374,-0.00069
852.43516,-0.00086
850.50657,-0.00041
848.57798,0.00010
846.64940,0.00141
844.72081,0.00337
842.79222,0.00563
840.86364,0.00852
838.93505,0.01162
837.00646,0.01477
835.07788,0.01797
833.14929,0.02106
831.22071,0.02376
829.29212,0.02579
827.36353,0.02721
825.43495,0.02828
823.50636,0.02954
821.57777,0.03105
819.64919,0.03245
817.72060,0.03397
815.79201,0.03551
813.86343,0.03684
811.93484,0.03894
810.00626,0.04212
808.07767,0.04612
806.14908,0.05085
804.22050,0.05528
802.29191,0.05840
800.36332,0.05986
798.43474,0.05959
796.50615,0.05724
794.57757,0.05346
792.64898,0.04978
790.72039,0.04667
788.79181,0.04457
786.86322,0.04314
784.93463,0.04198
783.00605,0.04153
781.07746,0.04083
779.14887,0.03873
777.22029,0.03514
775.29170,0.03077
773.36312,0.02636
771.43453,0.02275
769.50594,0.02015
767.57736,0.01788
765.64877,0.01649
763.72018,0.01611
761.79160,0.01586
759.86301,0.01553
757.93443,0.01539
756.00584,0.01536
754.07725,0.01490
752.14867,0.01426
750.22008,0.01369
748.29149,0.01277
746.36291,0.01153
744.43432,0.01010
742.50573,0.00836
740.57715,0.00658
738.64856,0.00534
736.71998,0.00464
734.79139,0.00422
732.86280,0.00331
730.93422,0.00218
729.00563,0.00245
727.07704,0.00357
725.14846,0.00445
723.21987,0.00493
721.29129,0.00470
719.36270,0.00387
717.43411,0.00259
715.50553,0.00154
713.57694,0.00144
711.64835,0.00167
709.71977,0.00191
707.79118,0.00274
705.86259,0.00413
703.93401,0.00574
702.00542,0.00795
700.07684,0.01098
698.14825,0.01421
696.21966,0.01584
694.29108,0.01504
692.36249,0.01324
690.43390,0.01112
688.50532,0.00899
686.57673,0.00707
684.64814,0.00515
682.71956,0.00428
680.79097,0.00433
678.86239,0.00407
676.93380,0.00338
675.00521,0.00275
673.07663,0.00248
671.14804,0.00244
669.21945,0.00237
667.29087,0.00184
665.36228,0.00121
663.43370,0.00070
661.50511,0.00037
659.57652,0.00120
657.64794,0.00219
655.71935,0.00234
653.79076,0.00269
651.86218,0.00328
649.93359,0.00365
648.00500,0.00399
646.07642,0.00410
644.14783,0.00384
642.21925,0.00467
640.29066,0.00686
638.36207,0.00801
636.43349,0.00752
634.50490,0.00727
632.57631,0.00812
630.64773,0.00858
628.71914,0.00848
626.79056,0.00847
624.86197,0.00866
622.93338,0.01022
621.00480,0.01188
619.07621,0.01295
617.14762,0.01403
615.21904,0.01439
613.29045,0.01501
611.36186,0.01569
609.43328,0.01607
607.50469,0.01647
605.57611,0.01737
603.64752,0.01975
601.71893,0.02122
599.79035,0.02181
597.86176,0.02363
595.93317,0.02564
594.00459,0.02740
592.07600,0.02860
590.14742,0.03072
588.21883,0.03457
586.29024,0.03798
584.36166,0.04032
582.43307,0.04269
580.50448,0.04593
578.57590,0.04742
576.64731,0.04782
574.71872,0.05108
572.79014,0.05491
570.86155,0.05783
568.93297,0.06062
567.00438,0.06413
565.07579,0.06790
563.14721,0.06974
561.21862,0.07222
559.29003,0.07694
557.36145,0.08185
555.43286,0.08466
553.50427,0.08520
551.57569,0.08585
549.64710,0.08864
547.71852,0.09362
545.78993,0.09742
543.86134,0.09969
541.93276,0.10220
540.00417,0.10575
538.07558,0.10991
536.14700,0.11226
534.21841,0.11522
532.28983,0.11970
530.36124,0.12213
528.43265,0.12193
526.50407,0.12115
524.57548,0.11993
522.64689,0.11687
520.71831,0.11402
518.78972,0.11156
516.86113,0.10963
514.93255,0.10845
513.00396,0.10517
511.07538,0.10171
509.14679,0.09986
507.21820,0.10027
505.28962,0.10344
503.36103,0.10561
501.43244,0.10745
499.50386,0.11173
497.57527,0.11636
495.64669,0.12158
493.71810,0.12964
491.78951,0.13885
489.86093,0.14680
487.93234,0.15446
486.00375,0.16579
484.07517,0.17760
482.14658,0.18406
480.21799,0.19328
478.28941,0.20724
476.36082,0.21440
474.43224,0.21456
472.50365,0.21536
470.57506,0.21589
468.64648,0.21310
466.71789,0.21020
464.78930,0.20412
462.86072,0.19202
460.93213,0.18307
459.00355,0.17634
457.07496,0.16786
455.14637,0.15986
453.21779,0.14892
451.28920,0.13785
449.36061,0.13235
447.43203,0.12749
445.50344,0.11826
443.57485,0.10806
441.64627,0.10177
439.71768,0.10043
437.78910,0.09688
435.86051,0.09006
433.93192,0.08655
432.00334,0.08433
430.07475,0.08465
428.14616,0.08238
426.21758,0.07368
424.28899,0.06452
422.36040,0.05841
420.43182,0.06064
418.50323,0.05978
416.57465,0.05004
414.64606,0.03828
412.71747,0.02909
410.78889,0.02773
408.86030,0.02687
406.93171,0.02233
405.00313,0.01279
403.07454,0.00595
401.14596,0.00324
399.21737,0.00000
