3747.24323,0.00029
3745.31464,0.00153
3743.38605,0.00000
3741.45747,0.00015
3739.52888,0.00185
3737.60030,0.00248
3735.67171,0.00234
3733.74312,0.00211
3731.81454,0.00256
3729.88595,0.00306
3727.95736,0.00409
3726.02878,0.00483
3724.10019,0.00510
3722.17161,0.00606
3720.24302,0.00707
3718.31443,0.00884
3716.38585,0.01055
3714.45726,0.01261
3712.52867,0.01477
3710.60009,0.01608
3708.67150,0.01854
3706.74291,0.02122
3704.81433,0.02419
3702.88574,0.02698
3700.95716,0.02887
3699.02857,0.03086
3697.09998,0.03198
3695.17140,0.03281
3693.24281,0.03359
3691.31422,0.03480
3689.38564,0.03569
3687.45705,0.03594
3685.52846,0.03788
3683.59988,0.04064
3681.67129,0.04355
3679.74271,0.04654
3677.81412,0.05036
3675.88553,0.05373
3673.95695,0.05635
3672.02836,0.06094
3670.09977,0.06484
3668.17119,0.06794
3666.24260,0.07230
3664.31402,0.07649
3662.38543,0.08045
3660.45684,0.08434
3658.52826,0.08840
3656.59967,0.09170
3654.67108,0.09440
3652.74250,0.09817
3650.81391,0.10143
3648.88532,0.10357
3646.95674,0.10578
3645.02815,0.10873
3643.09957,0.11184
3641.17098,0.11452
3639.24239,0.11736
3637.31381,0.12016
3635.38522,0.12296
3633.45663,0.12566
3631.52805,0.12864
3629.59946,0.13105
3627.67088,0.13170
3625.74229,0.13325
3623.81370,0.13518
3621.88512,0.13645
3619.95653,0.13685
3618.02794,0.13567
3616.09936,0.13512
3614.17077,0.13481
3612.24218,0.13403
3610.31360,0.13383
3608.38501,0.13338
3606.45643,0.13284
3604.52784,0.13285
3602.59925,0.13289
3600.67067,0.13274
3598.74208,0.13265
3596.81349,0.13274
3594.88491,0.13287
3592.95632,0.13287
3591.02774,0.13337
3589.09915,0.13406
3587.17056,0.13397
3585.24198,0.13399
3583.31339,0.13473
3581.38480,0.13580
3579.45622,0.13685
3577.52763,0.13764
3575.59904,0.13842
3573.67046,0.13944
3571.74187,0.14084
3569.81329,0.14224
3567.88470,0.14296
3565.95611,0.14349
3564.02753,0.14462
3562.09894,0.14595
3560.17035,0.14712
3558.24177,0.14824
3556.31318,0.14925
3554.38459,0.15035
3552.45601,0.15141
3550.52742,0.15256
3548.59884,0.15395
3546.67025,0.15504
3544.74166,0.15613
3542.81308,0.15723
3540.88449,0.15834
3538.95590,0.15965
3537.02732,0.16070
3535.09873,0.16173
3533.17015,0.16301
3531.24156,0.16435
3529.31297,0.16545
3527.38439,0.16625
3525.45580,0.16720
3523.52721,0.16821
3521.59863,0.16929
3519.67004,0.17047
3517.74145,0.17154
3515.81287,0.17260
3513.88428,0.17374
3511.95570,0.17481
3510.02711,0.17567
3508.09852,0.17657
3506.16994,0.17774
3504.24135,0.17893
3502.31276,0.17983
3500.38418,0.18074
3498.45559,0.18177
3496.52701,0.18270
3494.59842,0.18376
3492.66983,0.18485
3490.74125,0.18579
3488.81266,0.18653
3486.88407,0.18730
3484.95549,0.18834
3483.02690,0.18938
3481.09831,0.19019
3479.16973,0.19086
3477.24114,0.19177
3475.31256,0.19275
3473.38397,0.19358
3471.45538,0.19438
3469.52680,0.19520
3467.59821,0.19593
3465.66962,0.19650
3463.74104,0.19738
3461.81245,0.19821
3459.88386,0.19874
3457.95528,0.19943
3456.02669,0.20012
3454.09811,0.20088
3452.16952,0.20179
3450.24093,0.20252
3448.31235,0.20300
3446.38376,0.20344
3444.45517,0.20398
3442.52659,0.20467
3440.59800,0.20537
3438.66942,0.20592
3436.74083,0.20648
3434.81224,0.20703
3432.88366,0.20751
3430.95507,0.20802
3429.02648,0.20859
3427.09790,0.20922
3425.16931,0.20973
3423.24072,0.21007
3421.31214,0.21034
3419.38355,0.21075
3417.45497,0.21132
3415.52638,0.21181
3413.59779,0.21214
3411.66921,0.21241
3409.74062,0.21275
3407.81203,0.21312
3405.88345,0.21350
3403.95486,0.21391
3402.02628,0.21421
3400.09769,0.21432
3398.16910,0.21443
3396.24052,0.21462
3394.31193,0.21482
3392.38334,0.21502
3390.45476,0.21527
3388.52617,0.21556
3386.59758,0.21560
3384.66900,0.21568
3382.74041,0.21604
3380.81183,0.21629
3378.88324,0.21639
3376.95465,0.21651
3375.02607,0.21663
3373.09748,0.21659
3371.16889,0.21665
3369.24031,0.21689
3367.31172,0.21703
3365.38314,0.21722
3363.45455,0.21725
3361.52596,0.21716
3359.59738,0.21733
3357.66879,0.21754
3355.74020,0.21765
3353.81162,0.21770
3351.88303,0.21765
3349.95444,0.21754
3348.02586,0.21762
3346.09727,0.21779
3344.16869,0.21786
3342.24010,0.21787
3340.31151,0.21766
3338.38293,0.21742
3336.45434,0.21740
3334.52575,0.21746
3332.59717,0.21738
3330.66858,0.21731
3328.73999,0.21731
3326.81141,0.21723
3324.88282,0.21698
3322.95424,0.21677
3321.02565,0.21672
3319.09706,0.21661
3317.16848,0.21644
3315.23989,0.21621
3313.31130,0.21601
3311.38272,0.21582
3309.45413,0.21564
3307.52555,0.21562
3305.59696,0.21546
3303.66837,0.21521
3301.73979,0.21492
3299.81120,0.21457
3297.88261,0.21439
3295.95403,0.21417
3294.02544,0.21394
3292.09685,0.21366
3290.16827,0.21325
3288.23968,0.21279
3286.31110,0.21232
3284.38251,0.21188
3282.45392,0.21141
3280.52534,0.21097
3278.59675,0.21062
3276.66816,0.21018
3274.73958,0.20937
3272.81099,0.20833
3270.88241,0.20760
3268.95382,0.20699
3267.02523,0.20625
3265.09665,0.20544
3263.16806,0.20471
3261.23947,0.20392
3259.31089,0.20287
3257.38230,0.20201
3255.45371,0.20129
3253.52513,0.20051
3251.59654,0.19969
3249.66796,0.19875
3247.73937,0.19785
3245.81078,0.19693
3243.88220,0.19600
3241.95361,0.19520
3240.02502,0.19440
3238.09644,0.19355
3236.16785,0.19277
3234.23927,0.19216
3232.31068,0.19146
3230.38209,0.19056
3228.45351,0.18976
3226.52492,0.18911
3224.59633,0.18829
3222.66775,0.18733
3220.73916,0.18662
3218.81057,0.18584
3216.88199,0.18501
3214.95340,0.18442
3213.02482,0.18367
3211.09623,0.18291
3209.16764,0.18220
3207.23906,0.18128
3205.31047,0.18032
3203.38188,0.17952
3201.45330,0.17885
3199.52471,0.17809
3197.59612,0.17720
3195.66754,0.17627
3193.73895,0.17542
3191.81037,0.17466
3189.88178,0.17378
3187.95319,0.17287
3186.02461,0.17197
3184.09602,0.17106
3182.16743,0.17025
3180.23885,0.16941
3178.31026,0.16851
3176.38168,0.16773
3174.45309,0.16689
3172.52450,0.16599
3170.59592,0.16523
3168.66733,0.16437
3166.73874,0.16342
3164.81016,0.16259
3162.88157,0.16180
3160.95298,0.16101
3159.02440,0.16015
3157.09581,0.15931
3155.16723,0.15845
3153.23864,0.15761
3151.31005,0.15690
3149.38147,0.15617
3147.45288,0.15553
3145.52429,0.15484
3143.59571,0.15409
3141.66712,0.15335
3139.73854,0.15256
3137.80995,0.15186
3135.88136,0.15112
3133.95278,0.15046
3132.02419,0.14991
3130.09560,0.14935
3128.16702,0.14873
3126.23843,0.14801
3124.30984,0.14742
3122.38126,0.14689
3120.45267,0.14634
3118.52409,0.14579
3116.59550,0.14528
3114.66691,0.14476
3112.73833,0.14413
3110.80974,0.14369
3108.88115,0.14322
3106.95257,0.14252
3105.02398,0.14184
3103.09540,0.14122
3101.16681,0.14072
3099.23822,0.14020
3097.30964,0.13964
3095.38105,0.13911
3093.45246,0.13860
3091.52388,0.13808
3089.59529,0.13744
3087.66670,0.13688
3085.73812,0.13644
3083.80953,0.13592
3081.88095,0.13531
3079.95236,0.13478
3078.02377,0.13427
3076.09519,0.13369
3074.16660,0.13308
3072.23801,0.13245
3070.30943,0.13182
3068.38084,0.13118
3066.45225,0.13052
3064.52367,0.12985
3062.59508,0.12909
3060.66650,0.12834
3058.73791,0.12773
3056.80932,0.12708
3054.88074,0.12629
3052.95215,0.12554
3051.02356,0.12477
3049.09498,0.12402
3047.16639,0.12347
3045.23781,0.12286
3043.30922,0.12214
3041.38063,0.12150
3039.45205,0.12080
3037.52346,0.12008
3035.59487,0.11952
3033.66629,0.11915
3031.73770,0.11885
3029.80911,0.11842
3027.88053,0.11795
3025.95194,0.11753
3024.02336,0.11706
3022.09477,0.11659
3020.16618,0.11633
3018.23760,0.11615
3016.30901,0.11596
3014.38042,0.11590
3012.45184,0.11582
3010.52325,0.11583
3008.59467,0.11590
3006.66608,0.11588
3004.73749,0.11620
3002.80891,0.11666
3000.88032,0.11706
2998.95173,0.11758
2997.02315,0.11815
2995.09456,0.11876
2993.16597,0.11954
2991.23739,0.12046
2989.30880,0.12146
2987.38022,0.12265
2985.45163,0.12410
2983.52304,0.12568
2981.59446,0.12729
2979.66587,0.12894
2977.73728,0.13071
2975.80870,0.13262
2973.88011,0.13453
2971.95153,0.13647
2970.02294,0.13863
2968.09435,0.14098
2966.16577,0.14328
2964.23718,0.14553
2962.30859,0.14768
2960.38001,0.14971
2958.45142,0.15154
2956.52283,0.15309
2954.59425,0.15459
2952.66566,0.15606
2950.73708,0.15771
2948.80849,0.15979
2946.87990,0.16225
2944.95132,0.16528
2943.02273,0.16890
2941.09414,0.17306
2939.16556,0.17755
2937.23697,0.18221
2935.30838,0.18696
2933.37980,0.19148
2931.45121,0.19585
2929.52263,0.19990
2927.59404,0.20323
2925.66545,0.20572
2923.73687,0.20696
2921.80828,0.20666
2919.87969,0.20476
2917.95111,0.20065
2916.02252,0.19369
2914.09394,0.18492
2912.16535,0.17650
2910.23676,0.16949
2908.30818,0.16398
2906.37959,0.15972
2904.45100,0.15618
2902.52242,0.15297
2900.59383,0.15009
2898.66524,0.14741
2896.73666,0.14481
2894.80807,0.14239
2892.87949,0.13997
2890.95090,0.13756
2889.02231,0.13529
2887.09373,0.13317
2885.16514,0.13145
2883.23655,0.13007
2881.30797,0.12896
2879.37938,0.12814
2877.45080,0.12758
2875.52221,0.12732
2873.59362,0.12734
2871.66504,0.12765
2869.73645,0.12789
2867.80786,0.12820
2865.87928,0.12917
2863.95069,0.13096
2862.02210,0.13395
2860.09352,0.13822
2858.16493,0.14331
2856.23635,0.14853
2854.30776,0.15253
2852.37917,0.15398
2850.45059,0.15139
2848.52200,0.14400
2846.59341,0.13375
2844.66483,0.12353
2842.73624,0.11477
2840.80766,0.10773
2838.87907,0.10205
2836.95048,0.09733
2835.02190,0.09345
2833.09331,0.09022
2831.16472,0.08756
2829.23614,0.08538
2827.30755,0.08339
2825.37896,0.08152
2823.45038,0.07991
2821.52179,0.07842
2819.59321,0.07699
2817.66462,0.07569
2815.73603,0.07446
2813.80745,0.07331
2811.87886,0.07228
2809.95027,0.07131
2808.02169,0.07038
2806.09310,0.06946
2804.16451,0.06862
2802.23593,0.06780
2800.30734,0.06701
2798.37876,0.06632
2796.45017,0.06565
2794.52158,0.06499
2792.59300,0.06427
2790.66441,0.06364
2788.73582,0.06302
2786.80724,0.06233
2784.87865,0.06179
2782.95007,0.06119
2781.02148,0.06061
2779.09289,0.06009
2777.16431,0.05949
2775.23572,0.05903
2773.30713,0.05853
2771.37855,0.05795
2769.44996,0.05755
2767.52137,0.05713
2765.59279,0.05668
2763.66420,0.05633
2761.73562,0.05600
2759.80703,0.05564
2757.87844,0.05523
2755.94986,0.05484
2754.02127,0.05450
2752.09268,0.05418
2750.16410,0.05386
2748.23551,0.05357
2746.30693,0.05331
2744.37834,0.05305
2742.44975,0.05277
2740.52117,0.05240
2738.59258,0.05196
2736.66399,0.05171
2734.73541,0.05149
2732.80682,0.05110
2730.87823,0.05068
2728.94965,0.05029
2727.02106,0.04996
2725.09248,0.04963
2723.16389,0.04927
2721.23530,0.04898
2719.30672,0.04863
2717.37813,0.04819
2715.44954,0.04775
2713.52096,0.04733
2711.59237,0.04695
2709.66379,0.04655
2707.73520,0.04615
2705.80661,0.04583
2703.87803,0.04551
2701.94944,0.04516
2700.02085,0.04486
2698.09227,0.04450
2696.16368,0.04417
2694.23509,0.04401
2692.30651,0.04383
2690.37792,0.04353
2688.44934,0.04318
2686.52075,0.04287
2684.59216,0.04259
2682.66358,0.04232
2680.73499,0.04211
2678.80640,0.04184
2676.87782,0.04151
2674.94923,0.04121
2673.02064,0.04090
2671.09206,0.04059
2669.16347,0.04029
2667.23489,0.03997
2665.30630,0.03964
2663.37771,0.03936
2661.44913,0.03910
2659.52054,0.03884
2657.59195,0.03859
2655.66337,0.03830
2653.73478,0.03800
2651.80620,0.03768
2649.87761,0.03740
2647.94902,0.03715
2646.02044,0.03681
2644.09185,0.03652
2642.16326,0.03626
2640.23468,0.03596
2638.30609,0.03570
2636.37750,0.03549
2634.44892,0.03529
2632.52033,0.03509
2630.59175,0.03481
2628.66316,0.03443
2626.73457,0.03409
2624.80599,0.03381
2622.87740,0.03354
2620.94881,0.03327
2619.02023,0.03293
2617.09164,0.03264
2615.16306,0.03238
2613.23447,0.03210
2611.30588,0.03183
2609.37730,0.03153
2607.44871,0.03123
2605.52012,0.03099
2603.59154,0.03073
2601.66295,0.03042
2599.73436,0.03012
2597.80578,0.02987
2595.87719,0.02961
2593.94861,0.02929
2592.02002,0.02900
2590.09143,0.02872
2588.16285,0.02837
2586.23426,0.02809
2584.30567,0.02790
2582.37709,0.02765
2580.44850,0.02740
2578.51991,0.02716
2576.59133,0.02685
2574.66274,0.02655
2572.73416,0.02631
2570.80557,0.02607
2568.87698,0.02586
2566.94840,0.02567
2565.01981,0.02544
2563.09122,0.02523
2561.16264,0.02505
2559.23405,0.02475
2557.30547,0.02446
2555.37688,0.02427
2553.44829,0.02412
2551.51971,0.02393
2549.59112,0.02368
2547.66253,0.02350
2545.73395,0.02331
2543.80536,0.02306
2541.87677,0.02284
2539.94819,0.02266
2538.01960,0.02247
2536.09102,0.02221
2534.16243,0.02204
2532.23384,0.02195
2530.30526,0.02179
2528.37667,0.02162
2526.44808,0.02141
2524.51950,0.02116
2522.59091,0.02089
2520.66233,0.02058
2518.73374,0.02035
2516.80515,0.02017
2514.87657,0.01995
2512.94798,0.01970
2511.01939,0.01948
2509.09081,0.01934
2507.16222,0.01922
2505.23363,0.01895
2503.30505,0.01855
2501.37646,0.01832
2499.44788,0.01815
2497.51929,0.01796
2495.59070,0.01777
2493.66212,0.01754
2491.73353,0.01730
2489.80494,0.01710
2487.87636,0.01687
2485.94777,0.01658
2484.01919,0.01632
2482.09060,0.01608
2480.16201,0.01584
2478.23343,0.01570
2476.30484,0.01553
2474.37625,0.01527
2472.44767,0.01502
2470.51908,0.01475
2468.59049,0.01444
2466.66191,0.01422
2464.73332,0.01410
2462.80474,0.01390
2460.87615,0.01358
2458.94756,0.01333
2457.01898,0.01312
2455.09039,0.01290
2453.16180,0.01269
2451.23322,0.01250
2449.30463,0.01225
2447.37604,0.01194
2445.44746,0.01169
2443.51887,0.01145
2441.59029,0.01121
2439.66170,0.01097
2437.73311,0.01078
2435.80453,0.01063
2433.87594,0.01039
2431.94735,0.01017
2430.01877,0.00999
2428.09018,0.00980
2426.16160,0.00958
2424.23301,0.00928
2422.30442,0.00904
2420.37584,0.00883
2418.44725,0.00856
2416.51866,0.00836
2414.59008,0.00825
2412.66149,0.00809
2410.73290,0.00788
2408.80432,0.00765
2406.87573,0.00741
2404.94715,0.00719
2403.01856,0.00701
2401.08997,0.00687
2399.16139,0.00671
2397.23280,0.00654
2395.30421,0.00632
2393.37563,0.00604
2391.44704,0.00587
2389.51846,0.00575
2387.58987,0.00555
2385.66128,0.00541
2383.73270,0.00531
2381.80411,0.00511
2379.87552,0.00492
2377.94694,0.00482
2376.01835,0.00467
2374.08976,0.00448
2372.16118,0.00432
2370.23259,0.00412
2368.30401,0.00395
2366.37542,0.00369
2364.44683,0.00339
2362.51825,0.00318
2360.58966,0.00305
2358.66107,0.00290
2356.73249,0.00272
2354.80390,0.00259
2352.87532,0.00247
2350.94673,0.00247
2349.01814,0.00272
2347.08956,0.00291
2345.16097,0.00276
2343.23238,0.00261
2341.30380,0.00263
2339.37521,0.00252
2337.44662,0.00230
2335.51804,0.00211
2333.58945,0.00194
2331.66087,0.00177
2329.73228,0.00158
2327.80369,0.00150
2325.87511,0.00148
2323.94652,0.00143
2322.01793,0.00143
2320.08935,0.00139
2318.16076,0.00136
2316.23217,0.00131
2314.30359,0.00122
2312.37500,0.00115
2310.44642,0.00109
2308.51783,0.00106
2306.58924,0.00098
2304.66066,0.00090
2302.73207,0.00088
2300.80348,0.00086
2298.87490,0.00079
2296.94631,0.00071
2295.01773,0.00062
2293.08914,0.00052
2291.16055,0.00052
2289.23197,0.00056
2287.30338,0.00053
2285.37479,0.00050
2283.44621,0.00042
2281.51762,0.00034
2279.58903,0.00030
2277.66045,0.00022
2275.73186,0.00011
2273.80328,0.00009
2271.87469,0.00019
2269.94610,0.00022
2268.01752,0.00017
2266.08893,0.00011
2264.16034,0.00009
2262.23176,0.00009
2260.30317,0.00001
2258.37459,-0.00007
2256.44600,-0.00009
2254.51741,0.00002
2252.58883,0.00011
2250.66024,0.00003
2248.73165,-0.00006
2246.80307,-0.00008
2244.87448,-0.00008
2242.94589,-0.00006
2241.01731,-0.00001
2239.08872,0.00000
2237.16014,-0.00002
2235.23155,-0.00005
2233.30296,-0.00009
2231.37438,-0.00005
2229.44579,-0.00011
2227.51720,-0.00023
2225.58862,-0.00021
2223.66003,-0.00017
2221.73145,-0.00018
2219.80286,-0.00019
2217.87427,-0.00017
2215.94569,-0.00021
2214.01710,-0.00026
2212.08851,-0.00027
2210.15993,-0.00029
2208.23134,-0.00030
2206.30275,-0.00025
2204.37417,-0.00015
2202.44558,-0.00017
2200.51700,-0.00020
2198.58841,-0.00014
2196.65982,-0.00006
2194.73124,0.00007
2192.80265,0.00009
2190.87406,0.00003
2188.94548,0.00000
2187.01689,0.00000
2185.08830,0.00011
2183.15972,0.00015
2181.23113,0.00012
2179.30255,0.00011
2177.37396,0.00015
2175.44537,0.00014
2173.51679,0.00009
2171.58820,0.00002
2169.65961,0.00000
2167.73103,0.00010
2165.80244,0.00015
2163.87386,0.00018
2161.94527,0.00021
2160.01668,0.00016
2158.08810,0.00016
2156.15951,0.00022
2154.23092,0.00025
2152.30234,0.00025
2150.37375,0.00025
2148.44516,0.00021
2146.51658,0.00012
2144.58799,0.00009
2142.65941,0.00013
2140.73082,0.00015
2138.80223,0.00011
2136.87365,0.00011
2134.94506,0.00019
2133.01647,0.00013
2131.08789,0.00003
2129.15930,0.00000
2127.23072,-0.00002
2125.30213,-0.00003
2123.37354,-0.00003
2121.44496,-0.00004
2119.51637,-0.00004
2117.58778,-0.00004
2115.65920,-0.00005
2113.73061,-0.00007
2111.80202,-0.00013
2109.87344,-0.00022
2107.94485,-0.00029
2106.01627,-0.00028
2104.08768,-0.00023
2102.15909,-0.00027
2100.23051,-0.00031
2098.30192,-0.00028
2096.37333,-0.00025
2094.44475,-0.00024
2092.51616,-0.00025
2090.58758,-0.00023
2088.65899,-0.00018
2086.73040,-0.00011
2084.80182,-0.00010
2082.87323,-0.00008
2080.94464,0.00000
2079.01606,-0.00004
2077.08747,-0.00010
2075.15888,-0.00014
2073.23030,-0.00018
2071.30171,-0.00016
2069.37313,-0.00017
2067.44454,-0.00019
2065.51595,-0.00017
2063.58737,-0.00020
2061.65878,-0.00027
2059.73019,-0.00023
2057.80161,-0.00011
2055.87302,-0.00006
2053.94443,-0.00004
2052.01585,0.00002
2050.08726,0.00013
2048.15868,0.00020
2046.23009,0.00027
2044.30150,0.00041
2042.37292,0.00054
2040.44433,0.00072
2038.51574,0.00090
2036.58716,0.00103
2034.65857,0.00117
2032.72999,0.00136
2030.80140,0.00153
2028.87281,0.00161
2026.94423,0.00173
2025.01564,0.00180
2023.08705,0.00178
2021.15847,0.00180
2019.22988,0.00186
2017.30129,0.00199
2015.37271,0.00217
2013.44412,0.00236
2011.51554,0.00253
2009.58695,0.00268
2007.65836,0.00284
2005.72978,0.00296
2003.80119,0.00301
2001.87260,0.00303
1999.94402,0.00308
1998.01543,0.00306
1996.08685,0.00301
1994.15826,0.00304
1992.22967,0.00299
1990.30109,0.00286
1988.37250,0.00277
1986.44391,0.00276
1984.51533,0.00272
1982.58674,0.00256
1980.65815,0.00245
1978.72957,0.00241
1976.80098,0.00236
1974.87240,0.00227
1972.94381,0.00220
1971.01522,0.00216
1969.08664,0.00204
1967.15805,0.00179
1965.22946,0.00153
1963.30088,0.00136
1961.37229,0.00118
1959.44371,0.00103
1957.51512,0.00093
1955.58653,0.00087
1953.65795,0.00086
1951.72936,0.00076
1949.80077,0.00063
1947.87219,0.00052
1945.94360,0.00047
1944.01501,0.00044
1942.08643,0.00030
1940.15784,0.00021
1938.22926,0.00017
1936.30067,0.00015
1934.37208,0.00010
1932.44350,0.00001
1930.51491,-0.00006
1928.58632,-0.00011
1926.65774,-0.00008
1924.72915,0.00000
1922.80056,-0.00003
1920.87198,0.00008
1918.94339,0.00024
1917.01481,0.00025
1915.08622,0.00042
1913.15763,0.00077
1911.22905,0.00116
1909.30046,0.00158
1907.37187,0.00199
1905.44329,0.00239
1903.51470,0.00285
1901.58612,0.00339
1899.65753,0.00392
1897.72894,0.00440
1895.80036,0.00483
1893.87177,0.00517
1891.94318,0.00565
1890.01460,0.00601
1888.08601,0.00618
1886.15742,0.00648
1884.22884,0.00670
1882.30025,0.00689
1880.37167,0.00706
1878.44308,0.00714
1876.51449,0.00723
1874.58591,0.00726
1872.65732,0.00734
1870.72873,0.00731
1868.80015,0.00701
1866.87156,0.00669
1864.94298,0.00647
1863.01439,0.00608
1861.08580,0.00555
1859.15722,0.00505
1857.22863,0.00436
1855.30004,0.00368
1853.37146,0.00298
1851.44287,0.00239
1849.51428,0.00180
1847.58570,0.00132
1845.65711,0.00115
1843.72853,0.00045
1841.79994,0.00000
1839.87135,-0.00008
1837.94277,-0.00037
1836.01418,-0.00063
1834.08559,-0.00081
1832.15701,-0.00074
1830.22842,-0.00080
1828.29984,-0.00084
1826.37125,-0.00057
1824.44266,-0.00047
1822.51408,-0.00024
1820.58549,0.00014
1818.65690,0.00058
1816.72832,0.00113
1814.79973,0.00176
1812.87114,0.00258
1810.94256,0.00338
1809.01397,0.00421
1807.08539,0.00519
1805.15680,0.00634
1803.22821,0.00758
1801.29963,0.00888
1799.37104,0.01028
1797.44245,0.01182
1795.51387,0.01363
1793.58528,0.01552
1791.65669,0.01716
1789.72811,0.01889
1787.79952,0.02106
1785.87094,0.02316
1783.94235,0.02523
1782.01376,0.02743
1780.08518,0.02948
1778.15659,0.03162
1776.22800,0.03383
1774.29942,0.03605
1772.37083,0.03781
1770.44225,0.03948
1768.51366,0.04157
1766.58507,0.04343
1764.65649,0.04555
1762.72790,0.04766
1760.79931,0.04950
1758.87073,0.05196
1756.94214,0.05455
1755.01355,0.05726
1753.08497,0.06032
1751.15638,0.06343
1749.22780,0.06672
1747.29921,0.07048
1745.37062,0.07452
1743.44204,0.07873
1741.51345,0.08301
1739.58486,0.08706
1737.65628,0.09104
1735.72769,0.09488
1733.79911,0.09758
1731.87052,0.10000
1729.94193,0.10301
1728.01335,0.10569
1726.08476,0.10836
1724.15617,0.11091
1722.22759,0.11344
1720.29900,0.11647
1718.37041,0.11904
1716.44183,0.12100
1714.51324,0.12311
1712.58466,0.12550
1710.65607,0.12770
1708.72748,0.12958
1706.79890,0.13138
1704.87031,0.13295
1702.94172,0.13540
1701.01314,0.13800
1699.08455,0.13988
1697.15596,0.14288
1695.22738,0.14556
1693.29879,0.14807
1691.37021,0.15134
1689.44162,0.15410
1687.51303,0.15734
1685.58445,0.16049
1683.65586,0.16251
1681.72727,0.16540
1679.79869,0.16862
1677.87010,0.17171
1675.94152,0.17441
1674.01293,0.17668
1672.08434,0.17936
1670.15576,0.18170
1668.22717,0.18363
1666.29858,0.18562
1664.37000,0.18763
1662.44141,0.18903
1660.51282,0.19004
1658.58424,0.19109
1656.65565,0.19198
1654.72707,0.19295
1652.79848,0.19180
1650.86989,0.19091
1648.94131,0.19197
1647.01272,0.19184
1645.08413,0.19098
1643.15555,0.19091
1641.22696,0.19117
1639.29838,0.19130
1637.36979,0.19155
1635.44120,0.19104
1633.51262,0.19009
1631.58403,0.19006
1629.65544,0.18936
1627.72686,0.18798
1625.79827,0.18634
1623.86968,0.18434
1621.94110,0.18207
1620.01251,0.18025
1618.08393,0.17871
1616.15534,0.17583
1614.22675,0.17360
1612.29817,0.17192
1610.36958,0.16983
1608.44099,0.16781
1606.51241,0.16579
1604.58382,0.16414
1602.65524,0.16240
1600.72665,0.16074
1598.79806,0.15908
1596.86948,0.15750
1594.94089,0.15592
1593.01230,0.15414
1591.08372,0.15239
1589.15513,0.15035
1587.22654,0.14838
1585.29796,0.14630
1583.36937,0.14432
1581.44079,0.14235
1579.51220,0.14056
1577.58361,0.13921
1575.65503,0.13696
1573.72644,0.13545
1571.79785,0.13506
1569.86927,0.13407
1567.94068,0.13312
1566.01209,0.13296
1564.08351,0.13286
1562.15492,0.13323
1560.22634,0.13362
1558.29775,0.13246
1556.36916,0.13243
1554.44058,0.13307
1552.51199,0.13315
1550.58340,0.13338
1548.65482,0.13319
1546.72623,0.13331
1544.79765,0.13326
1542.86906,0.13277
1540.94047,0.13217
1539.01189,0.13035
1537.08330,0.12958
1535.15471,0.12933
1533.22613,0.12812
1531.29754,0.12681
1529.36895,0.12590
1527.44037,0.12492
1525.51178,0.12360
1523.58320,0.12295
1521.65461,0.12238
1519.72602,0.12196
1517.79744,0.12217
1515.86885,0.12150
1513.94026,0.12006
1512.01168,0.11806
1510.08309,0.11585
1508.15451,0.11364
1506.22592,0.10946
1504.29733,0.10511
1502.36875,0.10206
1500.44016,0.09866
1498.51157,0.09496
1496.58299,0.09092
1494.65440,0.08716
1492.72581,0.08463
1490.79723,0.08235
1488.86864,0.08008
1486.94006,0.07841
1485.01147,0.07734
1483.08288,0.07700
1481.15430,0.07726
1479.22571,0.07829
1477.29712,0.08037
1475.36854,0.08337
1473.43995,0.08756
1471.51137,0.09288
1469.58278,0.09870
1467.65419,0.10378
1465.72561,0.10657
1463.79702,0.10771
1461.86843,0.10861
1459.93985,0.10972
1458.01126,0.11065
1456.08267,0.11064
1454.15409,0.11089
1452.22550,0.11111
1450.29692,0.11088
1448.36833,0.11055
1446.43974,0.11000
1444.51116,0.10968
1442.58257,0.10944
1440.65398,0.10940
1438.72540,0.10979
1436.79681,0.10974
1434.86822,0.10953
1432.93964,0.10997
1431.01105,0.11048
1429.08247,0.11066
1427.15388,0.11116
1425.22529,0.11188
1423.29671,0.11248
1421.36812,0.11321
1419.43953,0.11360
1417.51095,0.11361
1415.58236,0.11388
1413.65378,0.11401
1411.72519,0.11406
1409.79660,0.11412
1407.86802,0.11419
1405.93943,0.11438
1404.01084,0.11417
1402.08226,0.11390
1400.15367,0.11337
1398.22508,0.11216
1396.29650,0.11088
1394.36791,0.10947
1392.43933,0.10838
1390.51074,0.10778
1388.58215,0.10722
1386.65357,0.10655
1384.72498,0.10608
1382.79639,0.10616
1380.86781,0.10645
1378.93922,0.10652
1377.01064,0.10603
1375.08205,0.10503
1373.15346,0.10387
1371.22488,0.10270
1369.29629,0.10141
1367.36770,0.09991
1365.43912,0.09857
1363.51053,0.09716
1361.58194,0.09561
1359.65336,0.09445
1357.72477,0.09342
1355.79619,0.09242
1353.86760,0.09153
1351.93901,0.09066
1350.01043,0.08993
1348.08184,0.08937
1346.15325,0.08890
1344.22467,0.08850
1342.29608,0.08810
1340.36750,0.08760
1338.43891,0.08697
1336.51032,0.08647
1334.58174,0.08613
1332.65315,0.08577
1330.72456,0.08553
1328.79598,0.08530
1326.86739,0.08500
1324.93880,0.08481
1323.01022,0.08457
1321.08163,0.08424
1319.15305,0.08399
1317.22446,0.08385
1315.29587,0.08375
1313.36729,0.08368
1311.43870,0.08349
1309.51011,0.08314
1307.58153,0.08296
1305.65294,0.08286
1303.72435,0.08274
1301.79577,0.08281
1299.86718,0.08311
1297.93860,0.08353
1296.01001,0.08392
1294.08142,0.08445
1292.15284,0.08525
1290.22425,0.08622
1288.29566,0.08748
1286.36708,0.08900
1284.43849,0.09063
1282.50991,0.09243
1280.58132,0.09438
1278.65273,0.09638
1276.72415,0.09846
1274.79556,0.10071
1272.86697,0.10317
1270.93839,0.10562
1269.00980,0.10809
1267.08121,0.11091
1265.15263,0.11405
1263.22404,0.11753
1261.29546,0.12144
1259.36687,0.12591
1257.43828,0.13087
1255.50970,0.13641
1253.58111,0.14261
1251.65252,0.14900
1249.72394,0.15547
1247.79535,0.16203
1245.86677,0.16838
1243.93818,0.17426
1242.00959,0.17963
1240.08101,0.18474
1238.15242,0.18950
1236.22383,0.19378
1234.29525,0.19771
1232.36666,0.20120
1230.43807,0.20440
1228.50949,0.20733
1226.58090,0.21008
1224.65232,0.21282
1222.72373,0.21541
1220.79514,0.21773
1218.86656,0.21969
1216.93797,0.22148
1215.00938,0.22338
1213.08080,0.22542
1211.15221,0.22736
1209.22363,0.22917
1207.29504,0.23094
1205.36645,0.23253
1203.43787,0.23401
1201.50928,0.23549
1199.58069,0.23704
1197.65211,0.23835
1195.72352,0.23940
1193.79493,0.24074
1191.86635,0.24222
1189.93776,0.24375
1188.00918,0.24524
1186.08059,0.24651
1184.15200,0.24810
1182.22342,0.25003
1180.29483,0.25200
1178.36624,0.25421
1176.43766,0.25672
1174.50907,0.25919
1172.58048,0.26143
1170.65190,0.26386
1168.72331,0.26651
1166.79473,0.26918
1164.86614,0.27170
1162.93755,0.27394
1161.00897,0.27570
1159.08038,0.27683
1157.15179,0.27800
1155.22321,0.27940
1153.29462,0.28104
1151.36604,0.28271
1149.43745,0.28403
1147.50886,0.28582
1145.58028,0.28805
1143.65169,0.29039
1141.72310,0.29313
1139.79452,0.29615
1137.86593,0.29939
1135.93734,0.30271
1134.00876,0.30632
1132.08017,0.31015
1130.15159,0.31381
1128.22300,0.31817
1126.29441,0.32344
1124.36583,0.32870
1122.43724,0.33410
1120.50865,0.33979
1118.58007,0.34544
1116.65148,0.35134
1114.72290,0.35774
1112.79431,0.36468
1110.86572,0.37182
1108.93714,0.37862
1107.00855,0.38474
1105.07996,0.39005
1103.15138,0.39469
1101.22279,0.39792
1099.29420,0.39980
1097.36562,0.40102
1095.43703,0.40141
1093.50845,0.40126
1091.57986,0.40082
1089.65127,0.39989
1087.72269,0.39816
1085.79410,0.39618
1083.86551,0.39377
1081.93693,0.39071
1080.00834,0.38796
1078.07976,0.38528
1076.15117,0.38244
1074.22258,0.37932
1072.29400,0.37606
1070.36541,0.37319
1068.43682,0.37048
1066.50824,0.36776
1064.57965,0.36472
1062.65106,0.36166
1060.72248,0.35867
1058.79389,0.35527
1056.86531,0.35150
1054.93672,0.34782
1053.00813,0.34449
1051.07955,0.34123
1049.15096,0.33856
1047.22237,0.33674
1045.29379,0.33540
1043.36520,0.33470
1041.43661,0.33448
1039.50803,0.33435
1037.57944,0.33392
1035.65086,0.33326
1033.72227,0.33222
1031.79368,0.33033
1029.86510,0.32761
1027.93651,0.32427
1026.00792,0.32074
1024.07934,0.31683
1022.15075,0.31268
1020.22217,0.30851
1018.29358,0.30438
1016.36499,0.30049
1014.43641,0.29633
1012.50782,0.29215
1010.57923,0.28824
1008.65065,0.28417
1006.72206,0.27993
1004.79347,0.27530
1002.86489,0.27029
1000.93630,0.26508
999.00772,0.25969
997.07913,0.25428
995.15054,0.24891
993.22196,0.24328
991.29337,0.23730
989.36478,0.23166
987.43620,0.22562
985.50761,0.21870
983.57903,0.21181
981.65044,0.20448
979.72185,0.19646
977.79327,0.18830
975.86468,0.18021
973.93609,0.17202
972.00751,0.16380
970.07892,0.15593
968.15033,0.14849
966.22175,0.14178
964.29316,0.13575
962.36458,0.12999
960.43599,0.12473
958.50740,0.12014
956.57882,0.11623
954.65023,0.11276
952.72164,0.10956
950.79306,0.10678
948.86447,0.10455
946.93589,0.10267
945.00730,0.10085
943.07871,0.09922
941.15013,0.09782
939.22154,0.09653
937.29295,0.09529
935.36437,0.09422
933.43578,0.09294
931.50719,0.09131
929.57861,0.09002
927.65002,0.08904
925.72144,0.08817
923.79285,0.08741
921.86426,0.08680
919.93568,0.08646
918.00709,0.08584
916.07850,0.08505
914.14992,0.08399
912.22133,0.08237
910.29274,0.08013
908.36416,0.07669
906.43557,0.07241
904.50699,0.06770
902.57840,0.06263
900.64981,0.05763
898.72123,0.05300
896.79264,0.04884
894.86405,0.04501
892.93547,0.04148
891.00688,0.03829
889.07830,0.03526
887.14971,0.03228
885.22112,0.02931
883.29254,0.02651
881.36395,0.02393
879.43536,0.02142
877.50678,0.01879
875.57819,0.01618
873.64960,0.01391
871.72102,0.01175
869.79243,0.00957
867.86385,0.00741
865.93526,0.00547
864.00667,0.00401
862.07809,0.00248
860.14950,0.00109
858.22091,0.00041
856.29233,0.00000
854.36374,-0.00035
852.43516,-0.00031
850.50657,-0.00011
848.57798,0.00056
846.64940,0.00206
844.72081,0.00402
842.79222,0.00607
840.86364,0.00878
838.93505,0.01240
837.00646,0.01603
835.07788,0.01938
833.14929,0.02275
831.22071,0.02560
829.29212,0.02752
827.36353,0.02890
825.43495,0.03022
823.50636,0.03164
821.57777,0.03293
819.64919,0.03417
817.72060,0.03545
815.79201,0.03691
813.86343,0.03890
811.93484,0.04157
810.00626,0.04523
808.07767,0.04992
806.14908,0.05546
804.22050,0.06109
802.29191,0.06506
800.36332,0.06675
798.43474,0.06642
796.50615,0.06366
794.57757,0.05891
792.64898,0.05439
790.72039,0.05146
788.79181,0.04903
786.86322,0.04669
784.93463,0.04572
783.00605,0.04599
781.07746,0.04593
779.14887,0.04431
777.22029,0.04045
775.29170,0.03496
773.36312,0.02927
771.43453,0.02443
769.50594,0.02101
767.57736,0.01898
765.64877,0.01810
763.72018,0.01768
761.79160,0.01727
759.86301,0.01718
757.93443,0.01714
756.00584,0.01647
754.07725,0.01582
752.14867,0.01572
750.22008,0.01507
748.29149,0.01397
746.36291,0.01288
744.43432,0.01123
742.50573,0.00908
740.57715,0.00666
738.64856,0.00473
736.71998,0.00376
734.79139,0.00282
732.86280,0.00172
730.93422,0.00131
729.00563,0.00174
727.07704,0.00222
725.14846,0.00265
723.21987,0.00299
721.29129,0.00268
719.36270,0.00173
717.43411,0.00044
715.50553,-0.00071
713.57694,-0.00140
711.64835,-0.00169
709.71977,-0.00090
707.79118,0.00084
705.86259,0.00222
703.93401,0.00360
702.00542,0.00601
700.07684,0.00934
698.14825,0.01317
696.21966,0.01582
694.29108,0.01501
692.36249,0.01190
690.43390,0.00887
688.50532,0.00646
686.57673,0.00523
684.64814,0.00442
682.71956,0.00325
680.79097,0.00255
678.86239,0.00212
676.93380,0.00196
675.00521,0.00154
673.07663,0.00080
671.14804,0.00078
669.21945,0.00053
667.29087,-0.00002
665.36228,-0.00021
663.43370,-0.00046
661.50511,-0.00036
659.57652,0.00000
657.64794,0.00011
655.71935,0.00044
653.79076,0.00128
651.86218,0.00191
649.93359,0.00170
648.00500,0.00208
646.07642,0.00343
644.14783,0.00393
642.21925,0.00370
640.29066,0.00416
638.36207,0.00473
636.43349,0.00520
634.50490,0.00526
632.57631,0.00462
630.64773,0.00526
628.71914,0.00693
626.79056,0.00738
624.86197,0.00740
622.93338,0.00832
621.00480,0.00936
619.07621,0.01036
617.14762,0.01146
615.21904,0.01200
613.29045,0.01257
611.36186,0.01398
609.43328,0.01557
607.50469,0.01645
605.57611,0.01707
603.64752,0.01802
601.71893,0.01978
599.79035,0.02267
597.86176,0.02465
595.93317,0.02561
594.00459,0.02754
592.07600,0.03000
590.14742,0.03214
588.21883,0.03467
586.29024,0.03887
584.36166,0.04356
582.43307,0.04673
580.50448,0.04933
578.57590,0.05275
576.64731,0.05702
574.71872,0.06010
572.79014,0.06239
570.86155,0.06726
568.93297,0.07270
567.00438,0.07639
565.07579,0.07988
563.14721,0.08320
561.21862,0.08713
559.29003,0.09152
557.36145,0.09550
555.43286,0.09981
553.50427,0.10324
551.57569,0.10609
549.64710,0.10914
547.71852,0.11267
545.78993,0.11730
543.86134,0.12173
541.93276,0.12706
540.00417,0.13200
538.07558,0.13469
536.14700,0.13827
534.21841,0.14253
532.28983,0.14514
530.36124,0.14504
528.43265,0.14418
526.50407,0.14416
524.57548,0.14314
522.64689,0.14103
520.71831,0.13725
518.78972,0.13376
516.86113,0.13180
514.93255,0.12785
513.00396,0.12280
511.07538,0.11973
509.14679,0.11904
507.21820,0.11931
505.28962,0.11918
503.36103,0.11942
501.43244,0.12343
499.50386,0.13054
497.57527,0.13649
495.64669,0.14300
493.71810,0.15254
491.78951,0.16527
489.86093,0.17899
487.93234,0.18976
486.00375,0.19895
484.07517,0.20919
482.14658,0.22011
480.21799,0.22915
478.28941,0.23561
476.36082,0.24234
474.43224,0.24980
472.50365,0.25154
470.57506,0.24747
468.64648,0.24482
466.71789,0.23918
464.78930,0.22771
462.86072,0.21711
460.93213,0.21056
459.00355,0.19791
457.07496,0.17980
455.14637,0.16723
453.21779,0.15567
451.28920,0.14700
449.36061,0.14087
447.43203,0.13369
445.50344,0.12663
443.57485,0.11834
441.64627,0.11163
439.71768,0.10487
437.78910,0.09845
435.86051,0.09560
433.93192,0.09513
432.00334,0.09467
430.07475,0.09140
428.14616,0.08607
426.21758,0.08015
424.28899,0.07540
422.36040,0.07132
420.43182,0.06730
418.50323,0.06349
416.57465,0.05705
414.64606,0.04568
412.71747,0.03626
410.78889,0.03101
408.86030,0.02263
406.93171,0.01564
405.00313,0.00711
403.07454,0.00000
401.14596,-0.00043
399.21737,0.00000
