3747.24323,0.00226
3745.31464,0.00562
3743.38605,0.00031
3741.45747,0.00000
3739.52888,0.00474
3737.60030,0.00616
3735.67171,0.00518
3733.74312,0.00431
3731.81454,0.00413
3729.88595,0.00415
3727.95736,0.00650
3726.02878,0.00763
3724.10019,0.00758
3722.17161,0.00907
3720.24302,0.00944
3718.31443,0.01137
3716.38585,0.01352
3714.45726,0.01667
3712.52867,0.01933
3710.60009,0.01883
3708.67150,0.02129
3706.74291,0.02436
3704.81433,0.02839
3702.88574,0.03196
3700.95716,0.03303
3699.02857,0.03513
3697.09998,0.03637
3695.17140,0.03749
3693.24281,0.03833
3691.31422,0.03997
3689.38564,0.04045
3687.45705,0.03845
3685.52846,0.04031
3683.59988,0.04406
3681.67129,0.04756
3679.74271,0.05059
3677.81412,0.05578
3675.88553,0.05886
3673.95695,0.05882
3672.02836,0.06549
3670.09977,0.06954
3668.17119,0.07052
3666.24260,0.07589
3664.31402,0.08071
3662.38543,0.08516
3660.45684,0.08906
3658.52826,0.09369
3656.59967,0.09696
3654.67108,0.09823
3652.74250,0.10344
3650.81391,0.10803
3648.88532,0.10837
3646.95674,0.10870
3645.02815,0.11235
3643.09957,0.11665
3641.17098,0.11945
3639.24239,0.12225
3637.31381,0.12477
3635.38522,0.12767
3633.45663,0.13026
3631.52805,0.13449
3629.59946,0.13735
3627.67088,0.13482
3625.74229,0.13619
3623.81370,0.13930
3621.88512,0.14100
3619.95653,0.14149
3618.02794,0.13863
3616.09936,0.13773
3614.17077,0.13784
3612.24218,0.13693
3610.31360,0.13657
3608.38501,0.13515
3606.45643,0.13361
3604.52784,0.13349
3602.59925,0.13392
3600.67067,0.13357
3598.74208,0.13318
3596.81349,0.13337
3594.88491,0.13313
3592.95632,0.13245
3591.02774,0.13304
3589.09915,0.13412
3587.17056,0.13293
3585.24198,0.13223
3583.31339,0.13365
3581.38480,0.13461
3579.45622,0.13505
3577.52763,0.13559
3575.59904,0.13645
3573.67046,0.13741
3571.74187,0.13865
3569.81329,0.14054
3567.88470,0.14124
3565.95611,0.14057
3564.02753,0.14112
3562.09894,0.14266
3560.17035,0.14386
3558.24177,0.14507
3556.31318,0.14636
3554.38459,0.14762
3552.45601,0.14838
3550.52742,0.14909
3548.59884,0.15062
3546.67025,0.15158
3544.74166,0.15207
3542.81308,0.15320
3540.88449,0.15455
3538.95590,0.15584
3537.02732,0.15685
3535.09873,0.15791
3533.17015,0.15911
3531.24156,0.16025
3529.31297,0.16109
3527.38439,0.16180
3525.45580,0.16296
3523.52721,0.16396
3521.59863,0.16476
3519.67004,0.16587
3517.74145,0.16699
3515.81287,0.16807
3513.88428,0.16897
3511.95570,0.16987
3510.02711,0.17095
3508.09852,0.17182
3506.16994,0.17300
3504.24135,0.17418
3502.31276,0.17462
3500.38418,0.17540
3498.45559,0.17663
3496.52701,0.17764
3494.59842,0.17851
3492.66983,0.17942
3490.74125,0.18039
3488.81266,0.18098
3486.88407,0.18172
3484.95549,0.18294
3483.02690,0.18393
3481.09831,0.18454
3479.16973,0.18521
3477.24114,0.18620
3475.31256,0.18707
3473.38397,0.18791
3471.45538,0.18871
3469.52680,0.18941
3467.59821,0.19006
3465.66962,0.19055
3463.74104,0.19148
3461.81245,0.19230
3459.88386,0.19276
3457.95528,0.19344
3456.02669,0.19412
3454.09811,0.19479
3452.16952,0.19527
3450.24093,0.19604
3448.31235,0.19695
3446.38376,0.19747
3444.45517,0.19810
3442.52659,0.19863
3440.59800,0.19903
3438.66942,0.19956
3436.74083,0.20012
3434.81224,0.20071
3432.88366,0.20138
3430.95507,0.20192
3429.02648,0.20226
3427.09790,0.20275
3425.16931,0.20341
3423.24072,0.20384
3421.31214,0.20396
3419.38355,0.20425
3417.45497,0.20470
3415.52638,0.20520
3413.59779,0.20575
3411.66921,0.20611
3409.74062,0.20649
3407.81203,0.20689
3405.88345,0.20718
3403.95486,0.20738
3402.02628,0.20749
3400.09769,0.20775
3398.16910,0.20806
3396.24052,0.20835
3394.31193,0.20852
3392.38334,0.20853
3390.45476,0.20865
3388.52617,0.20880
3386.59758,0.20899
3384.66900,0.20921
3382.74041,0.20947
3380.81183,0.20970
3378.88324,0.20974
3376.95465,0.20986
3375.02607,0.20996
3373.09748,0.21000
3371.16889,0.21018
3369.24031,0.21025
3367.31172,0.21048
3365.38314,0.21078
3363.45455,0.21083
3361.52596,0.21078
3359.59738,0.21067
3357.66879,0.21083
3355.74020,0.21110
3353.81162,0.21116
3351.88303,0.21109
3349.95444,0.21098
3348.02586,0.21113
3346.09727,0.21126
3344.16869,0.21118
3342.24010,0.21112
3340.31151,0.21113
3338.38293,0.21123
3336.45434,0.21132
3334.52575,0.21114
3332.59717,0.21081
3330.66858,0.21071
3328.73999,0.21080
3326.81141,0.21068
3324.88282,0.21049
3322.95424,0.21052
3321.02565,0.21061
3319.09706,0.21041
3317.16848,0.21006
3315.23989,0.20988
3313.31130,0.20982
3311.38272,0.20980
3309.45413,0.20975
3307.52555,0.20948
3305.59696,0.20922
3303.66837,0.20906
3301.73979,0.20871
3299.81120,0.20838
3297.88261,0.20811
3295.95403,0.20786
3294.02544,0.20766
3292.09685,0.20732
3290.16827,0.20700
3288.23968,0.20663
3286.31110,0.20628
3284.38251,0.20595
3282.45392,0.20535
3280.52534,0.20489
3278.59675,0.20443
3276.66816,0.20369
3274.73958,0.20294
3272.81099,0.20221
3270.88241,0.20156
3268.95382,0.20080
3267.02523,0.20001
3265.09665,0.19938
3263.16806,0.19857
3261.23947,0.19770
3259.31089,0.19684
3257.38230,0.19586
3255.45371,0.19504
3253.52513,0.19427
3251.59654,0.19337
3249.66796,0.19253
3247.73937,0.19176
3245.81078,0.19092
3243.88220,0.18999
3241.95361,0.18915
3240.02502,0.18850
3238.09644,0.18782
3236.16785,0.18689
3234.23927,0.18594
3232.31068,0.18521
3230.38209,0.18444
3228.45351,0.18365
3226.52492,0.18308
3224.59633,0.18252
3222.66775,0.18182
3220.73916,0.18094
3218.81057,0.18004
3216.88199,0.17932
3214.95340,0.17854
3213.02482,0.17766
3211.09623,0.17694
3209.16764,0.17617
3207.23906,0.17527
3205.31047,0.17449
3203.38188,0.17386
3201.45330,0.17316
3199.52471,0.17228
3197.59612,0.17136
3195.66754,0.17056
3193.73895,0.16978
3191.81037,0.16907
3189.88178,0.16842
3187.95319,0.16752
3186.02461,0.16650
3184.09602,0.16563
3182.16743,0.16479
3180.23885,0.16403
3178.31026,0.16338
3176.38168,0.16255
3174.45309,0.16150
3172.52450,0.16064
3170.59592,0.15986
3168.66733,0.15881
3166.73874,0.15792
3164.81016,0.15722
3162.88157,0.15648
3160.95298,0.15580
3159.02440,0.15508
3157.09581,0.15431
3155.16723,0.15345
3153.23864,0.15262
3151.31005,0.15189
3149.38147,0.15128
3147.45288,0.15069
3145.52429,0.14990
3143.59571,0.14911
3141.66712,0.14837
3139.73854,0.14775
3137.80995,0.14723
3135.88136,0.14650
3133.95278,0.14580
3132.02419,0.14518
3130.09560,0.14452
3128.16702,0.14391
3126.23843,0.14341
3124.30984,0.14297
3122.38126,0.14249
3120.45267,0.14197
3118.52409,0.14150
3116.59550,0.14100
3114.66691,0.14041
3112.73833,0.13996
3110.80974,0.13954
3108.88115,0.13902
3106.95257,0.13860
3105.02398,0.13804
3103.09540,0.13739
3101.16681,0.13691
3099.23822,0.13654
3097.30964,0.13634
3095.38105,0.13599
3093.45246,0.13540
3091.52388,0.13492
3089.59529,0.13451
3087.66670,0.13395
3085.73812,0.13345
3083.80953,0.13310
3081.88095,0.13258
3079.95236,0.13193
3078.02377,0.13139
3076.09519,0.13095
3074.16660,0.13046
3072.23801,0.12992
3070.30943,0.12932
3068.38084,0.12867
3066.45225,0.12811
3064.52367,0.12760
3062.59508,0.12703
3060.66650,0.12632
3058.73791,0.12563
3056.80932,0.12504
3054.88074,0.12423
3052.95215,0.12346
3051.02356,0.12290
3049.09498,0.12223
3047.16639,0.12159
3045.23781,0.12115
3043.30922,0.12060
3041.38063,0.11980
3039.45205,0.11914
3037.52346,0.11864
3035.59487,0.11815
3033.66629,0.11775
3031.73770,0.11728
3029.80911,0.11680
3027.88053,0.11635
3025.95194,0.11596
3024.02336,0.11570
3022.09477,0.11551
3020.16618,0.11531
3018.23760,0.11495
3016.30901,0.11463
3014.38042,0.11453
3012.45184,0.11454
3010.52325,0.11479
3008.59467,0.11501
3006.66608,0.11514
3004.73749,0.11545
3002.80891,0.11585
3000.88032,0.11630
2998.95173,0.11685
2997.02315,0.11744
2995.09456,0.11803
2993.16597,0.11878
2991.23739,0.11990
2989.30880,0.12107
2987.38022,0.12220
2985.45163,0.12356
2983.52304,0.12505
2981.59446,0.12667
2979.66587,0.12848
2977.73728,0.13030
2975.80870,0.13209
2973.88011,0.13403
2971.95153,0.13624
2970.02294,0.13853
2968.09435,0.14075
2966.16577,0.14300
2964.23718,0.14532
2962.30859,0.14752
2960.38001,0.14968
2958.45142,0.15168
2956.52283,0.15339
2954.59425,0.15504
2952.66566,0.15670
2950.73708,0.15851
2948.80849,0.16064
2946.87990,0.16316
2944.95132,0.16629
2943.02273,0.16999
2941.09414,0.17419
2939.16556,0.17873
2937.23697,0.18342
2935.30838,0.18815
2933.37980,0.19273
2931.45121,0.19725
2929.52263,0.20134
2927.59404,0.20464
2925.66545,0.20709
2923.73687,0.20842
2921.80828,0.20849
2919.87969,0.20674
2917.95111,0.20248
2916.02252,0.19537
2914.09394,0.18643
2912.16535,0.17795
2910.23676,0.17099
2908.30818,0.16561
2906.37959,0.16132
2904.45100,0.15756
2902.52242,0.15438
2900.59383,0.15161
2898.66524,0.14882
2896.73666,0.14606
2894.80807,0.14344
2892.87949,0.14097
2890.95090,0.13863
2889.02231,0.13645
2887.09373,0.13434
2885.16514,0.13242
2883.23655,0.13092
2881.30797,0.12980
2879.37938,0.12901
2877.45080,0.12859
2875.52221,0.12846
2873.59362,0.12852
2871.66504,0.12868
2869.73645,0.12905
2867.80786,0.12970
2865.87928,0.13070
2863.95069,0.13255
2862.02210,0.13571
2860.09352,0.14006
2858.16493,0.14525
2856.23635,0.15058
2854.30776,0.15470
2852.37917,0.15613
2850.45059,0.15347
2848.52200,0.14618
2846.59341,0.13591
2844.66483,0.12548
2842.73624,0.11656
2840.80766,0.10929
2838.87907,0.10343
2836.95048,0.09885
2835.02190,0.09509
2833.09331,0.09184
2831.16472,0.08911
2829.23614,0.08684
2827.30755,0.08478
2825.37896,0.08288
2823.45038,0.08128
2821.52179,0.07990
2819.59321,0.07852
2817.66462,0.07718
2815.73603,0.07596
2813.80745,0.07483
2811.87886,0.07381
2809.95027,0.07291
2808.02169,0.07198
2806.09310,0.07115
2804.16451,0.07042
2802.23593,0.06959
2800.30734,0.06877
2798.37876,0.06803
2796.45017,0.06732
2794.52158,0.06669
2792.59300,0.06610
2790.66441,0.06540
2788.73582,0.06468
2786.80724,0.06406
2784.87865,0.06346
2782.95007,0.06286
2781.02148,0.06228
2779.09289,0.06176
2777.16431,0.06124
2775.23572,0.06073
2773.30713,0.06032
2771.37855,0.05991
2769.44996,0.05949
2767.52137,0.05906
2765.59279,0.05867
2763.66420,0.05838
2761.73562,0.05793
2759.80703,0.05743
2757.87844,0.05720
2755.94986,0.05696
2754.02127,0.05661
2752.09268,0.05635
2750.16410,0.05607
2748.23551,0.05575
2746.30693,0.05542
2744.37834,0.05503
2742.44975,0.05463
2740.52117,0.05435
2738.59258,0.05409
2736.66399,0.05375
2734.73541,0.05344
2732.80682,0.05318
2730.87823,0.05294
2728.94965,0.05257
2727.02106,0.05210
2725.09248,0.05181
2723.16389,0.05150
2721.23530,0.05106
2719.30672,0.05062
2717.37813,0.05025
2715.44954,0.04990
2713.52096,0.04949
2711.59237,0.04909
2709.66379,0.04877
2707.73520,0.04840
2705.80661,0.04791
2703.87803,0.04754
2701.94944,0.04734
2700.02085,0.04711
2698.09227,0.04676
2696.16368,0.04639
2694.23509,0.04618
2692.30651,0.04598
2690.37792,0.04568
2688.44934,0.04541
2686.52075,0.04513
2684.59216,0.04486
2682.66358,0.04458
2680.73499,0.04422
2678.80640,0.04390
2676.87782,0.04365
2674.94923,0.04333
2673.02064,0.04300
2671.09206,0.04262
2669.16347,0.04224
2667.23489,0.04201
2665.30630,0.04178
2663.37771,0.04156
2661.44913,0.04129
2659.52054,0.04103
2657.59195,0.04076
2655.66337,0.04040
2653.73478,0.04013
2651.80620,0.03981
2649.87761,0.03950
2647.94902,0.03936
2646.02044,0.03914
2644.09185,0.03884
2642.16326,0.03849
2640.23468,0.03821
2638.30609,0.03806
2636.37750,0.03785
2634.44892,0.03754
2632.52033,0.03723
2630.59175,0.03691
2628.66316,0.03661
2626.73457,0.03640
2624.80599,0.03611
2622.87740,0.03577
2620.94881,0.03547
2619.02023,0.03515
2617.09164,0.03483
2615.16306,0.03453
2613.23447,0.03428
2611.30588,0.03407
2609.37730,0.03386
2607.44871,0.03356
2605.52012,0.03327
2603.59154,0.03308
2601.66295,0.03281
2599.73436,0.03257
2597.80578,0.03238
2595.87719,0.03204
2593.94861,0.03166
2592.02002,0.03135
2590.09143,0.03105
2588.16285,0.03076
2586.23426,0.03053
2584.30567,0.03035
2582.37709,0.03015
2580.44850,0.02993
2578.51991,0.02967
2576.59133,0.02945
2574.66274,0.02921
2572.73416,0.02891
2570.80557,0.02861
2568.87698,0.02846
2566.94840,0.02836
2565.01981,0.02810
2563.09122,0.02781
2561.16264,0.02761
2559.23405,0.02740
2557.30547,0.02719
2555.37688,0.02698
2553.44829,0.02678
2551.51971,0.02658
2549.59112,0.02637
2547.66253,0.02622
2545.73395,0.02592
2543.80536,0.02554
2541.87677,0.02540
2539.94819,0.02531
2538.01960,0.02520
2536.09102,0.02506
2534.16243,0.02487
2532.23384,0.02479
2530.30526,0.02463
2528.37667,0.02430
2526.44808,0.02406
2524.51950,0.02391
2522.59091,0.02372
2520.66233,0.02352
2518.73374,0.02336
2516.80515,0.02307
2514.87657,0.02280
2512.94798,0.02259
2511.01939,0.02241
2509.09081,0.02224
2507.16222,0.02195
2505.23363,0.02171
2503.30505,0.02150
2501.37646,0.02125
2499.44788,0.02108
2497.51929,0.02086
2495.59070,0.02055
2493.66212,0.02021
2491.73353,0.01995
2489.80494,0.01979
2487.87636,0.01961
2485.94777,0.01931
2484.01919,0.01896
2482.09060,0.01873
2480.16201,0.01851
2478.23343,0.01822
2476.30484,0.01795
2474.37625,0.01771
2472.44767,0.01750
2470.51908,0.01723
2468.59049,0.01698
2466.66191,0.01672
2464.73332,0.01641
2462.80474,0.01614
2460.87615,0.01586
2458.94756,0.01565
2457.01898,0.01548
2455.09039,0.01518
2453.16180,0.01492
2451.23322,0.01474
2449.30463,0.01447
2447.37604,0.01411
2445.44746,0.01382
2443.51887,0.01367
2441.59029,0.01347
2439.66170,0.01323
2437.73311,0.01297
2435.80453,0.01261
2433.87594,0.01235
2431.94735,0.01225
2430.01877,0.01207
2428.09018,0.01183
2426.16160,0.01164
2424.23301,0.01135
2422.30442,0.01095
2420.37584,0.01069
2418.44725,0.01053
2416.51866,0.01037
2414.59008,0.01018
2412.66149,0.00998
2410.73290,0.00975
2408.80432,0.00957
2406.87573,0.00937
2404.94715,0.00904
2403.01856,0.00884
2401.08997,0.00873
2399.16139,0.00852
2397.23280,0.00823
2395.30421,0.00794
2393.37563,0.00780
2391.44704,0.00774
2389.51846,0.00752
2387.58987,0.00721
2385.66128,0.00710
2383.73270,0.00705
2381.80411,0.00695
2379.87552,0.00689
2377.94694,0.00674
2376.01835,0.00653
2374.08976,0.00629
2372.16118,0.00602
2370.23259,0.00568
2368.30401,0.00537
2366.37542,0.00518
2364.44683,0.00483
2362.51825,0.00440
2360.58966,0.00401
2358.66107,0.00364
2356.73249,0.00344
2354.80390,0.00342
2352.87532,0.00340
2350.94673,0.00350
2349.01814,0.00415
2347.08956,0.00472
2345.16097,0.00452
2343.23238,0.00409
2341.30380,0.00386
2339.37521,0.00381
2337.44662,0.00365
2335.51804,0.00332
2333.58945,0.00305
2331.66087,0.00290
2329.73228,0.00286
2327.80369,0.00273
2325.87511,0.00254
2323.94652,0.00250
2322.01793,0.00257
2320.08935,0.00266
2318.16076,0.00260
2316.23217,0.00259
2314.30359,0.00264
2312.37500,0.00257
2310.44642,0.00238
2308.51783,0.00228
2306.58924,0.00238
2304.66066,0.00241
2302.73207,0.00232
2300.80348,0.00236
2298.87490,0.00237
2296.94631,0.00225
2295.01773,0.00222
2293.08914,0.00220
2291.16055,0.00210
2289.23197,0.00209
2287.30338,0.00206
2285.37479,0.00187
2283.44621,0.00179
2281.51762,0.00184
2279.58903,0.00175
2277.66045,0.00155
2275.73186,0.00148
2273.80328,0.00149
2271.87469,0.00139
2269.94610,0.00127
2268.01752,0.00120
2266.08893,0.00109
2264.16034,0.00104
2262.23176,0.00101
2260.30317,0.00093
2258.37459,0.00090
2256.44600,0.00088
2254.51741,0.00084
2252.58883,0.00076
2250.66024,0.00065
2248.73165,0.00060
2246.80307,0.00062
2244.87448,0.00060
2242.94589,0.00050
2241.01731,0.00045
2239.08872,0.00049
2237.16014,0.00049
2235.23155,0.00045
2233.30296,0.00042
2231.37438,0.00036
2229.44579,0.00034
2227.51720,0.00027
2225.58862,0.00025
2223.66003,0.00028
2221.73145,0.00017
2219.80286,-0.00001
2217.87427,-0.00017
2215.94569,-0.00016
2214.01710,0.00001
2212.08851,0.00005
2210.15993,-0.00004
2208.23134,-0.00010
2206.30275,-0.00006
2204.37417,-0.00004
2202.44558,-0.00006
2200.51700,0.00000
2198.58841,0.00003
2196.65982,-0.00002
2194.73124,0.00000
2192.80265,0.00007
2190.87406,0.00009
2188.94548,0.00003
2187.01689,0.00003
2185.08830,0.00019
2183.15972,0.00028
2181.23113,0.00019
2179.30255,0.00022
2177.37396,0.00029
2175.44537,0.00027
2173.51679,0.00027
2171.58820,0.00016
2169.65961,0.00000
2167.73103,0.00004
2165.80244,0.00022
2163.87386,0.00038
2161.94527,0.00043
2160.01668,0.00033
2158.08810,0.00027
2156.15951,0.00039
2154.23092,0.00045
2152.30234,0.00038
2150.37375,0.00032
2148.44516,0.00031
2146.51658,0.00034
2144.58799,0.00038
2142.65941,0.00050
2140.73082,0.00056
2138.80223,0.00050
2136.87365,0.00049
2134.94506,0.00045
2133.01647,0.00039
2131.08789,0.00038
2129.15930,0.00036
2127.23072,0.00032
2125.30213,0.00026
2123.37354,0.00020
2121.44496,0.00017
2119.51637,0.00026
2117.58778,0.00036
2115.65920,0.00027
2113.73061,0.00010
2111.80202,0.00009
2109.87344,0.00013
2107.94485,0.00017
2106.01627,0.00023
2104.08768,0.00019
2102.15909,0.00005
2100.23051,0.00003
2098.30192,0.00010
2096.37333,0.00010
2094.44475,0.00015
2092.51616,0.00016
2090.58758,0.00011
2088.65899,0.00017
2086.73040,0.00019
2084.80182,0.00016
2082.87323,0.00014
2080.94464,0.00018
2079.01606,0.00013
2077.08747,0.00000
2075.15888,0.00000
2073.23030,0.00005
2071.30171,0.00008
2069.37313,0.00013
2067.44454,0.00011
2065.51595,0.00006
2063.58737,-0.00002
2061.65878,-0.00005
2059.73019,-0.00006
2057.80161,-0.00002
2055.87302,0.00012
2053.94443,0.00007
2052.01585,-0.00002
2050.08726,0.00005
2048.15868,0.00013
2046.23009,0.00020
2044.30150,0.00037
2042.37292,0.00054
2040.44433,0.00068
2038.51574,0.00087
2036.58716,0.00109
2034.65857,0.00129
2032.72999,0.00141
2030.80140,0.00150
2028.87281,0.00155
2026.94423,0.00155
2025.01564,0.00153
2023.08705,0.00150
2021.15847,0.00159
2019.22988,0.00176
2017.30129,0.00176
2015.37271,0.00167
2013.44412,0.00175
2011.51554,0.00194
2009.58695,0.00212
2007.65836,0.00234
2005.72978,0.00249
2003.80119,0.00262
2001.87260,0.00264
1999.94402,0.00265
1998.01543,0.00272
1996.08685,0.00274
1994.15826,0.00277
1992.22967,0.00260
1990.30109,0.00238
1988.37250,0.00236
1986.44391,0.00226
1984.51533,0.00216
1982.58674,0.00209
1980.65815,0.00209
1978.72957,0.00209
1976.80098,0.00197
1974.87240,0.00190
1972.94381,0.00177
1971.01522,0.00167
1969.08664,0.00168
1967.15805,0.00149
1965.22946,0.00123
1963.30088,0.00111
1961.37229,0.00103
1959.44371,0.00090
1957.51512,0.00078
1955.58653,0.00070
1953.65795,0.00066
1951.72936,0.00062
1949.80077,0.00062
1947.87219,0.00058
1945.94360,0.00059
1944.01501,0.00060
1942.08643,0.00022
1940.15784,0.00000
1938.22926,0.00012
1936.30067,0.00012
1934.37208,0.00006
1932.44350,-0.00008
1930.51491,-0.00016
1928.58632,-0.00011
1926.65774,0.00000
1924.72915,0.00015
1922.80056,0.00000
1920.87198,0.00015
1918.94339,0.00047
1917.01481,0.00016
1915.08622,0.00036
1913.15763,0.00102
1911.22905,0.00142
1909.30046,0.00180
1907.37187,0.00213
1905.44329,0.00263
1903.51470,0.00318
1901.58612,0.00370
1899.65753,0.00428
1897.72894,0.00474
1895.80036,0.00521
1893.87177,0.00553
1891.94318,0.00605
1890.01460,0.00643
1888.08601,0.00646
1886.15742,0.00687
1884.22884,0.00716
1882.30025,0.00736
1880.37167,0.00758
1878.44308,0.00765
1876.51449,0.00778
1874.58591,0.00768
1872.65732,0.00784
1870.72873,0.00813
1868.80015,0.00776
1866.87156,0.00710
1864.94298,0.00691
1863.01439,0.00668
1861.08580,0.00617
1859.15722,0.00564
1857.22863,0.00483
1855.30004,0.00417
1853.37146,0.00343
1851.44287,0.00278
1849.51428,0.00230
1847.58570,0.00203
1845.65711,0.00210
1843.72853,0.00076
1841.79994,0.00000
1839.87135,0.00043
1837.94277,0.00028
1836.01418,0.00012
1834.08559,-0.00013
1832.15701,0.00018
1830.22842,0.00010
1828.29984,-0.00037
1826.37125,0.00022
1824.44266,0.00024
1822.51408,0.00037
1820.58549,0.00103
1818.65690,0.00146
1816.72832,0.00193
1814.79973,0.00254
1812.87114,0.00358
1810.94256,0.00433
1809.01397,0.00501
1807.08539,0.00606
1805.15680,0.00729
1803.22821,0.00878
1801.29963,0.01004
1799.37104,0.01116
1797.44245,0.01263
1795.51387,0.01485
1793.58528,0.01699
1791.65669,0.01795
1789.72811,0.01944
1787.79952,0.02217
1785.87094,0.02447
1783.94235,0.02640
1782.01376,0.02864
1780.08518,0.03075
1778.15659,0.03275
1776.22800,0.03508
1774.29942,0.03775
1772.37083,0.03896
1770.44225,0.03994
1768.51366,0.04231
1766.58507,0.04396
1764.65649,0.04638
1762.72790,0.04888
1760.79931,0.05019
1758.87073,0.05288
1756.94214,0.05537
1755.01355,0.05796
1753.08497,0.06178
1751.15638,0.06482
1749.22780,0.06757
1747.29921,0.07141
1745.37062,0.07576
1743.44204,0.08002
1741.51345,0.08464
1739.58486,0.08862
1737.65628,0.09274
1735.72769,0.09774
1733.79911,0.09933
1731.87052,0.10048
1729.94193,0.10434
1728.01335,0.10703
1726.08476,0.10982
1724.15617,0.11255
1722.22759,0.11495
1720.29900,0.11870
1718.37041,0.12099
1716.44183,0.12157
1714.51324,0.12324
1712.58466,0.12592
1710.65607,0.12824
1708.72748,0.13030
1706.79890,0.13234
1704.87031,0.13337
1702.94172,0.13634
1701.01314,0.13898
1699.08455,0.13895
1697.15596,0.14217
1695.22738,0.14401
1693.29879,0.14548
1691.37021,0.14997
1689.44162,0.15247
1687.51303,0.15608
1685.58445,0.15958
1683.65586,0.15930
1681.72727,0.16160
1679.79869,0.16526
1677.87010,0.16905
1675.94152,0.17181
1674.01293,0.17305
1672.08434,0.17599
1670.15576,0.17839
1668.22717,0.17921
1666.29858,0.18131
1664.37000,0.18401
1662.44141,0.18475
1660.51282,0.18526
1658.58424,0.18642
1656.65565,0.18811
1654.72707,0.19042
1652.79848,0.18698
1650.86989,0.18439
1648.94131,0.18726
1647.01272,0.18730
1645.08413,0.18528
1643.15555,0.18558
1641.22696,0.18648
1639.29838,0.18703
1637.36979,0.18782
1635.44120,0.18633
1633.51262,0.18454
1631.58403,0.18546
1629.65544,0.18524
1627.72686,0.18382
1625.79827,0.18235
1623.86968,0.18046
1621.94110,0.17789
1620.01251,0.17669
1618.08393,0.17609
1616.15534,0.17206
1614.22675,0.16950
1612.29817,0.16879
1610.36958,0.16712
1608.44099,0.16538
1606.51241,0.16348
1604.58382,0.16188
1602.65524,0.15997
1600.72665,0.15829
1598.79806,0.15680
1596.86948,0.15523
1594.94089,0.15361
1593.01230,0.15171
1591.08372,0.14995
1589.15513,0.14791
1587.22654,0.14610
1585.29796,0.14405
1583.36937,0.14202
1581.44079,0.13995
1579.51220,0.13850
1577.58361,0.13764
1575.65503,0.13398
1573.72644,0.13191
1571.79785,0.13266
1569.86927,0.13146
1567.94068,0.12990
1566.01209,0.13000
1564.08351,0.13000
1562.15492,0.13128
1560.22634,0.13222
1558.29775,0.12850
1556.36916,0.12793
1554.44058,0.12946
1552.51199,0.12943
1550.58340,0.13009
1548.65482,0.12992
1546.72623,0.13013
1544.79765,0.13020
1542.86906,0.12990
1540.94047,0.12963
1539.01189,0.12598
1537.08330,0.12520
1535.15471,0.12632
1533.22613,0.12481
1531.29754,0.12310
1529.36895,0.12262
1527.44037,0.12198
1525.51178,0.12056
1523.58320,0.12043
1521.65461,0.11959
1519.72602,0.11836
1517.79744,0.11917
1515.86885,0.11862
1513.94026,0.11724
1512.01168,0.11538
1510.08309,0.11345
1508.15451,0.11192
1506.22592,0.10616
1504.29733,0.10093
1502.36875,0.09925
1500.44016,0.09662
1498.51157,0.09309
1496.58299,0.08856
1494.65440,0.08431
1492.72581,0.08247
1490.79723,0.08044
1488.86864,0.07761
1486.94006,0.07575
1485.01147,0.07489
1483.08288,0.07488
1481.15430,0.07528
1479.22571,0.07652
1477.29712,0.07881
1475.36854,0.08198
1473.43995,0.08617
1471.51137,0.09080
1469.58278,0.09659
1467.65419,0.10239
1465.72561,0.10522
1463.79702,0.10591
1461.86843,0.10683
1459.93985,0.10885
1458.01126,0.10996
1456.08267,0.10835
1454.15409,0.10850
1452.22550,0.10953
1450.29692,0.10944
1448.36833,0.10912
1446.43974,0.10825
1444.51116,0.10795
1442.58257,0.10779
1440.65398,0.10777
1438.72540,0.10864
1436.79681,0.10792
1434.86822,0.10692
1432.93964,0.10779
1431.01105,0.10856
1429.08247,0.10867
1427.15388,0.10926
1425.22529,0.11003
1423.29671,0.11052
1421.36812,0.11155
1419.43953,0.11162
1417.51095,0.11069
1415.58236,0.11116
1413.65378,0.11161
1411.72519,0.11160
1409.79660,0.11150
1407.86802,0.11140
1405.93943,0.11138
1404.01084,0.11071
1402.08226,0.11050
1400.15367,0.11005
1398.22508,0.10884
1396.29650,0.10802
1394.36791,0.10674
1392.43933,0.10555
1390.51074,0.10545
1388.58215,0.10540
1386.65357,0.10479
1384.72498,0.10475
1382.79639,0.10521
1380.86781,0.10529
1378.93922,0.10516
1377.01064,0.10469
1375.08205,0.10384
1373.15346,0.10259
1371.22488,0.10142
1369.29629,0.10040
1367.36770,0.09899
1365.43912,0.09770
1363.51053,0.09620
1361.58194,0.09452
1359.65336,0.09328
1357.72477,0.09239
1355.79619,0.09162
1353.86760,0.09075
1351.93901,0.08996
1350.01043,0.08922
1348.08184,0.08862
1346.15325,0.08809
1344.22467,0.08753
1342.29608,0.08717
1340.36750,0.08665
1338.43891,0.08598
1336.51032,0.08558
1334.58174,0.08540
1332.65315,0.08513
1330.72456,0.08476
1328.79598,0.08440
1326.86739,0.08393
1324.93880,0.08346
1323.01022,0.08306
1321.08163,0.08281
1319.15305,0.08255
1317.22446,0.08217
1315.29587,0.08187
1313.36729,0.08144
1311.43870,0.08102
1309.51011,0.08079
1307.58153,0.08056
1305.65294,0.08041
1303.72435,0.08030
1301.79577,0.08023
1299.86718,0.08036
1297.93860,0.08055
1296.01001,0.08085
1294.08142,0.08135
1292.15284,0.08200
1290.22425,0.08288
1288.29566,0.08399
1286.36708,0.08519
1284.43849,0.08663
1282.50991,0.08824
1280.58132,0.08979
1278.65273,0.09137
1276.72415,0.09305
1274.79556,0.09487
1272.86697,0.09687
1270.93839,0.09899
1269.00980,0.10112
1267.08121,0.10314
1265.15263,0.10529
1263.22404,0.10766
1261.29546,0.11040
1259.36687,0.11370
1257.43828,0.11749
1255.50970,0.12174
1253.58111,0.12635
1251.65252,0.13124
1249.72394,0.13636
1247.79535,0.14152
1245.86677,0.14631
1243.93818,0.15077
1242.00959,0.15520
1240.08101,0.15932
1238.15242,0.16304
1236.22383,0.16656
1234.29525,0.16984
1232.36666,0.17296
1230.43807,0.17578
1228.50949,0.17806
1226.58090,0.18010
1224.65232,0.18239
1222.72373,0.18467
1220.79514,0.18675
1218.86656,0.18877
1216.93797,0.19055
1215.00938,0.19230
1213.08080,0.19411
1211.15221,0.19593
1209.22363,0.19773
1207.29504,0.19922
1205.36645,0.20081
1203.43787,0.20256
1201.50928,0.20408
1199.58069,0.20544
1197.65211,0.20673
1195.72352,0.20809
1193.79493,0.20952
1191.86635,0.21087
1189.93776,0.21224
1188.00918,0.21367
1186.08059,0.21506
1184.15200,0.21665
1182.22342,0.21848
1180.29483,0.22042
1178.36624,0.22272
1176.43766,0.22542
1174.50907,0.22814
1172.58048,0.23078
1170.65190,0.23340
1168.72331,0.23598
1166.79473,0.23876
1164.86614,0.24148
1162.93755,0.24373
1161.00897,0.24570
1159.08038,0.24715
1157.15179,0.24818
1155.22321,0.24938
1153.29462,0.25064
1151.36604,0.25183
1149.43745,0.25337
1147.50886,0.25541
1145.58028,0.25760
1143.65169,0.26008
1141.72310,0.26286
1139.79452,0.26577
1137.86593,0.26912
1135.93734,0.27259
1134.00876,0.27625
1132.08017,0.28010
1130.15159,0.28366
1128.22300,0.28782
1126.29441,0.29283
1124.36583,0.29798
1122.43724,0.30323
1120.50865,0.30837
1118.58007,0.31357
1116.65148,0.31924
1114.72290,0.32515
1112.79431,0.33096
1110.86572,0.33665
1108.93714,0.34244
1107.00855,0.34784
1105.07996,0.35250
1103.15138,0.35651
1101.22279,0.35952
1099.29420,0.36160
1097.36562,0.36278
1095.43703,0.36349
1093.50845,0.36396
1091.57986,0.36354
1089.65127,0.36281
1087.72269,0.36216
1085.79410,0.36119
1083.86551,0.35964
1081.93693,0.35753
1080.00834,0.35587
1078.07976,0.35476
1076.15117,0.35325
1074.22258,0.35136
1072.29400,0.34971
1070.36541,0.34841
1068.43682,0.34744
1066.50824,0.34670
1064.57965,0.34560
1062.65106,0.34379
1060.72248,0.34194
1058.79389,0.34013
1056.86531,0.33788
1054.93672,0.33583
1053.00813,0.33393
1051.07955,0.33244
1049.15096,0.33194
1047.22237,0.33171
1045.29379,0.33215
1043.36520,0.33336
1041.43661,0.33452
1039.50803,0.33602
1037.57944,0.33788
1035.65086,0.33902
1033.72227,0.33905
1031.79368,0.33822
1029.86510,0.33642
1027.93651,0.33386
1026.00792,0.33086
1024.07934,0.32756
1022.15075,0.32406
1020.22217,0.32042
1018.29358,0.31698
1016.36499,0.31358
1014.43641,0.31007
1012.50782,0.30646
1010.57923,0.30267
1008.65065,0.29893
1006.72206,0.29492
1004.79347,0.29041
1002.86489,0.28546
1000.93630,0.28020
999.00772,0.27478
997.07913,0.26918
995.15054,0.26360
993.22196,0.25790
991.29337,0.25200
989.36478,0.24598
987.43620,0.23929
985.50761,0.23220
983.57903,0.22496
981.65044,0.21694
979.72185,0.20846
977.79327,0.19969
975.86468,0.19048
973.93609,0.18141
972.00751,0.17277
970.07892,0.16444
968.15033,0.15609
966.22175,0.14820
964.29316,0.14154
962.36458,0.13526
960.43599,0.12908
958.50740,0.12398
956.57882,0.11992
954.65023,0.11617
952.72164,0.11258
950.79306,0.10949
948.86447,0.10704
946.93589,0.10504
945.00730,0.10323
943.07871,0.10148
941.15013,0.10010
939.22154,0.09879
937.29295,0.09731
935.36437,0.09611
933.43578,0.09494
931.50719,0.09369
929.57861,0.09268
927.65002,0.09177
925.72144,0.09087
923.79285,0.09013
921.86426,0.08976
919.93568,0.08939
918.00709,0.08895
916.07850,0.08871
914.14992,0.08818
912.22133,0.08659
910.29274,0.08354
908.36416,0.07963
906.43557,0.07545
904.50699,0.07070
902.57840,0.06522
900.64981,0.05952
898.72123,0.05435
896.79264,0.04979
894.86405,0.04563
892.93547,0.04182
891.00688,0.03840
889.07830,0.03547
887.14971,0.03278
885.22112,0.03006
883.29254,0.02744
881.36395,0.02509
879.43536,0.02247
877.50678,0.01973
875.57819,0.01720
873.64960,0.01464
871.72102,0.01225
869.79243,0.00971
867.86385,0.00727
865.93526,0.00533
864.00667,0.00369
862.07809,0.00252
860.14950,0.00132
858.22091,0.00036
856.29233,0.00000
854.36374,-0.00031
852.43516,-0.00034
850.50657,-0.00016
848.57798,0.00047
846.64940,0.00150
844.72081,0.00283
842.79222,0.00464
840.86364,0.00719
838.93505,0.01041
837.00646,0.01354
835.07788,0.01692
833.14929,0.02040
831.22071,0.02293
829.29212,0.02464
827.36353,0.02592
825.43495,0.02672
823.50636,0.02721
821.57777,0.02809
819.64919,0.02905
817.72060,0.02970
815.79201,0.03084
813.86343,0.03277
811.93484,0.03544
810.00626,0.03907
808.07767,0.04429
806.14908,0.05060
804.22050,0.05679
802.29191,0.06175
800.36332,0.06389
798.43474,0.06255
796.50615,0.05855
794.57757,0.05398
792.64898,0.04984
790.72039,0.04611
788.79181,0.04364
786.86322,0.04241
784.93463,0.04254
783.00605,0.04370
781.07746,0.04404
779.14887,0.04226
777.22029,0.03856
775.29170,0.03375
773.36312,0.02870
771.43453,0.02440
769.50594,0.02134
767.57736,0.01956
765.64877,0.01874
763.72018,0.01835
761.79160,0.01844
759.86301,0.01895
757.93443,0.01934
756.00584,0.01915
754.07725,0.01880
752.14867,0.01860
750.22008,0.01825
748.29149,0.01725
746.36291,0.01575
744.43432,0.01423
742.50573,0.01176
740.57715,0.00880
738.64856,0.00669
736.71998,0.00532
734.79139,0.00460
732.86280,0.00361
730.93422,0.00280
729.00563,0.00313
727.07704,0.00339
725.14846,0.00349
723.21987,0.00407
721.29129,0.00418
719.36270,0.00327
717.43411,0.00211
715.50553,0.00142
713.57694,0.00088
711.64835,0.00039
709.71977,0.00115
707.79118,0.00254
705.86259,0.00352
703.93401,0.00562
702.00542,0.00864
700.07684,0.01171
698.14825,0.01544
696.21966,0.01869
694.29108,0.01889
692.36249,0.01587
690.43390,0.01198
688.50532,0.00908
686.57673,0.00741
684.64814,0.00701
682.71956,0.00677
680.79097,0.00526
678.86239,0.00431
676.93380,0.00394
675.00521,0.00277
673.07663,0.00252
671.14804,0.00201
669.21945,0.00084
667.29087,0.00036
665.36228,-0.00005
663.43370,0.00020
661.50511,0.00029
659.57652,0.00000
657.64794,-0.00030
655.71935,-0.00035
653.79076,0.00098
651.86218,0.00209
649.93359,0.00227
648.00500,0.00257
646.07642,0.00327
644.14783,0.00386
642.21925,0.00377
640.29066,0.00365
638.36207,0.00451
636.43349,0.00661
634.50490,0.00781
632.57631,0.00735
630.64773,0.00708
628.71914,0.00748
626.79056,0.00788
624.86197,0.00805
622.93338,0.00922
621.00480,0.01145
619.07621,0.01306
617.14762,0.01300
615.21904,0.01243
613.29045,0.01266
611.36186,0.01340
609.43328,0.01545
607.50469,0.01729
605.57611,0.01752
603.64752,0.01881
601.71893,0.02076
599.79035,0.02225
597.86176,0.02470
595.93317,0.02700
594.00459,0.02913
592.07600,0.03294
590.14742,0.03663
588.21883,0.03885
586.29024,0.04105
584.36166,0.04494
582.43307,0.04957
580.50448,0.05204
578.57590,0.05413
576.64731,0.05814
574.71872,0.06302
572.79014,0.06751
570.86155,0.07194
568.93297,0.07730
567.00438,0.08183
565.07579,0.08565
563.14721,0.09010
561.21862,0.09500
559.29003,0.10005
557.36145,0.10403
555.43286,0.10779
553.50427,0.11144
551.57569,0.11533
549.64710,0.12010
547.71852,0.12313
545.78993,0.12575
543.86134,0.13111
541.93276,0.13730
540.00417,0.14214
538.07558,0.14637
536.14700,0.14995
534.21841,0.15320
532.28983,0.15611
530.36124,0.15582
528.43265,0.15450
526.50407,0.15582
524.57548,0.15767
522.64689,0.15553
520.71831,0.15011
518.78972,0.14585
516.86113,0.14044
514.93255,0.13414
513.00396,0.12912
511.07538,0.12497
509.14679,0.12395
507.21820,0.12488
505.28962,0.12665
503.36103,0.12684
501.43244,0.12704
499.50386,0.13081
497.57527,0.13564
495.64669,0.14384
493.71810,0.15266
491.78951,0.16182
489.86093,0.17390
487.93234,0.18504
486.00375,0.19765
484.07517,0.20859
482.14658,0.21774
480.21799,0.22676
478.28941,0.23293
476.36082,0.23786
474.43224,0.24078
472.50365,0.24437
470.57506,0.24345
468.64648,0.23544
466.71789,0.22767
464.78930,0.21880
462.86072,0.20530
460.93213,0.19094
459.00355,0.17853
457.07496,0.16720
455.14637,0.15647
453.21779,0.14426
451.28920,0.13309
449.36061,0.12599
447.43203,0.11974
445.50344,0.11324
443.57485,0.11040
441.64627,0.10576
439.71768,0.09456
437.78910,0.08788
435.86051,0.08890
433.93192,0.08946
432.00334,0.08740
430.07475,0.08946
428.14616,0.09109
426.21758,0.08571
424.28899,0.07895
422.36040,0.06975
420.43182,0.06679
418.50323,0.06193
416.57465,0.04850
414.64606,0.04217
412.71747,0.03264
410.78889,0.02586
408.86030,0.02514
406.93171,0.02237
405.00313,0.02091
403.07454,0.01801
401.14596,0.01186
399.21737,0.00000
