3747.24323,0.00087
3745.31464,0.00300
3743.38605,0.00035
3741.45747,0.00000
3739.52888,0.00281
3737.60030,0.00385
3735.67171,0.00357
3733.74312,0.00333
3731.81454,0.00348
3729.88595,0.00367
3727.95736,0.00521
3726.02878,0.00630
3724.10019,0.00667
3722.17161,0.00812
3720.24302,0.00927
3718.31443,0.01126
3716.38585,0.01345
3714.45726,0.01650
3712.52867,0.01948
3710.60009,0.02038
3708.67150,0.02297
3706.74291,0.02620
3704.81433,0.02984
3702.88574,0.03334
3700.95716,0.03517
3699.02857,0.03719
3697.09998,0.03861
3695.17140,0.03954
3693.24281,0.03993
3691.31422,0.04096
3689.38564,0.04172
3687.45705,0.04107
3685.52846,0.04265
3683.59988,0.04576
3681.67129,0.04906
3679.74271,0.05221
3677.81412,0.05658
3675.88553,0.06000
3673.95695,0.06196
3672.02836,0.06759
3670.09977,0.07192
3668.17119,0.07453
3666.24260,0.07951
3664.31402,0.08423
3662.38543,0.08872
3660.45684,0.09268
3658.52826,0.09703
3656.59967,0.10072
3654.67108,0.10312
3652.74250,0.10756
3650.81391,0.11162
3648.88532,0.11331
3646.95674,0.11481
3645.02815,0.11790
3643.09957,0.12137
3641.17098,0.12423
3639.24239,0.12713
3637.31381,0.12975
3635.38522,0.13285
3633.45663,0.13565
3631.52805,0.13907
3629.59946,0.14180
3627.67088,0.14125
3625.74229,0.14240
3623.81370,0.14456
3621.88512,0.14565
3619.95653,0.14557
3618.02794,0.14307
3616.09936,0.14134
3614.17077,0.14039
3612.24218,0.13891
3610.31360,0.13766
3608.38501,0.13597
3606.45643,0.13442
3604.52784,0.13369
3602.59925,0.13314
3600.67067,0.13214
3598.74208,0.13122
3596.81349,0.13062
3594.88491,0.12997
3592.95632,0.12923
3591.02774,0.12905
3589.09915,0.12911
3587.17056,0.12828
3585.24198,0.12784
3583.31339,0.12823
3581.38480,0.12851
3579.45622,0.12888
3577.52763,0.12916
3575.59904,0.12959
3573.67046,0.13030
3571.74187,0.13104
3569.81329,0.13216
3567.88470,0.13278
3565.95611,0.13256
3564.02753,0.13316
3562.09894,0.13449
3560.17035,0.13543
3558.24177,0.13630
3556.31318,0.13713
3554.38459,0.13793
3552.45601,0.13881
3550.52742,0.13962
3548.59884,0.14066
3546.67025,0.14159
3544.74166,0.14216
3542.81308,0.14269
3540.88449,0.14352
3538.95590,0.14480
3537.02732,0.14583
3535.09873,0.14645
3533.17015,0.14724
3531.24156,0.14815
3529.31297,0.14899
3527.38439,0.14983
3525.45580,0.15067
3523.52721,0.15149
3521.59863,0.15232
3519.67004,0.15319
3517.74145,0.15414
3515.81287,0.15502
3513.88428,0.15588
3511.95570,0.15689
3510.02711,0.15771
3508.09852,0.15852
3506.16994,0.15956
3504.24135,0.16053
3502.31276,0.16133
3500.38418,0.16200
3498.45559,0.16274
3496.52701,0.16355
3494.59842,0.16433
3492.66983,0.16524
3490.74125,0.16626
3488.81266,0.16728
3486.88407,0.16815
3484.95549,0.16888
3483.02690,0.16960
3481.09831,0.17020
3479.16973,0.17091
3477.24114,0.17183
3475.31256,0.17255
3473.38397,0.17305
3471.45538,0.17373
3469.52680,0.17472
3467.59821,0.17549
3465.66962,0.17609
3463.74104,0.17682
3461.81245,0.17746
3459.88386,0.17823
3457.95528,0.17898
3456.02669,0.17963
3454.09811,0.18033
3452.16952,0.18078
3450.24093,0.18145
3448.31235,0.18243
3446.38376,0.18316
3444.45517,0.18374
3442.52659,0.18431
3440.59800,0.18467
3438.66942,0.18509
3436.74083,0.18579
3434.81224,0.18634
3432.88366,0.18683
3430.95507,0.18742
3429.02648,0.18788
3427.09790,0.18839
3425.16931,0.18894
3423.24072,0.18934
3421.31214,0.18973
3419.38355,0.19014
3417.45497,0.19054
3415.52638,0.19095
3413.59779,0.19133
3411.66921,0.19172
3409.74062,0.19209
3407.81203,0.19229
3405.88345,0.19262
3403.95486,0.19302
3402.02628,0.19336
3400.09769,0.19370
3398.16910,0.19383
3396.24052,0.19403
3394.31193,0.19441
3392.38334,0.19455
3390.45476,0.19472
3388.52617,0.19503
3386.59758,0.19515
3384.66900,0.19533
3382.74041,0.19564
3380.81183,0.19592
3378.88324,0.19616
3376.95465,0.19637
3375.02607,0.19665
3373.09748,0.19680
3371.16889,0.19672
3369.24031,0.19682
3367.31172,0.19707
3365.38314,0.19732
3363.45455,0.19749
3361.52596,0.19761
3359.59738,0.19775
3357.66879,0.19796
3355.74020,0.19813
3353.81162,0.19829
3351.88303,0.19845
3349.95444,0.19842
3348.02586,0.19835
3346.09727,0.19845
3344.16869,0.19863
3342.24010,0.19876
3340.31151,0.19885
3338.38293,0.19896
3336.45434,0.19896
3334.52575,0.19883
3332.59717,0.19878
3330.66858,0.19879
3328.73999,0.19875
3326.81141,0.19878
3324.88282,0.19878
3322.95424,0.19866
3321.02565,0.19856
3319.09706,0.19848
3317.16848,0.19853
3315.23989,0.19863
3313.31130,0.19854
3311.38272,0.19834
3309.45413,0.19806
3307.52555,0.19789
3305.59696,0.19781
3303.66837,0.19767
3301.73979,0.19757
3299.81120,0.19741
3297.88261,0.19712
3295.95403,0.19689
3294.02544,0.19676
3292.09685,0.19661
3290.16827,0.19627
3288.23968,0.19586
3286.31110,0.19573
3284.38251,0.19549
3282.45392,0.19493
3280.52534,0.19429
3278.59675,0.19363
3276.66816,0.19295
3274.73958,0.19232
3272.81099,0.19168
3270.88241,0.19110
3268.95382,0.19057
3267.02523,0.18991
3265.09665,0.18909
3263.16806,0.18827
3261.23947,0.18750
3259.31089,0.18665
3257.38230,0.18574
3255.45371,0.18497
3253.52513,0.18419
3251.59654,0.18334
3249.66796,0.18263
3247.73937,0.18187
3245.81078,0.18094
3243.88220,0.18011
3241.95361,0.17937
3240.02502,0.17858
3238.09644,0.17794
3236.16785,0.17739
3234.23927,0.17676
3232.31068,0.17594
3230.38209,0.17504
3228.45351,0.17446
3226.52492,0.17388
3224.59633,0.17307
3222.66775,0.17229
3220.73916,0.17152
3218.81057,0.17075
3216.88199,0.17012
3214.95340,0.16959
3213.02482,0.16893
3211.09623,0.16812
3209.16764,0.16729
3207.23906,0.16650
3205.31047,0.16578
3203.38188,0.16508
3201.45330,0.16447
3199.52471,0.16383
3197.59612,0.16304
3195.66754,0.16232
3193.73895,0.16170
3191.81037,0.16102
3189.88178,0.16020
3187.95319,0.15932
3186.02461,0.15853
3184.09602,0.15778
3182.16743,0.15694
3180.23885,0.15613
3178.31026,0.15541
3176.38168,0.15455
3174.45309,0.15370
3172.52450,0.15294
3170.59592,0.15217
3168.66733,0.15144
3166.73874,0.15059
3164.81016,0.14975
3162.88157,0.14917
3160.95298,0.14857
3159.02440,0.14773
3157.09581,0.14670
3155.16723,0.14586
3153.23864,0.14538
3151.31005,0.14503
3149.38147,0.14439
3147.45288,0.14356
3145.52429,0.14286
3143.59571,0.14222
3141.66712,0.14165
3139.73854,0.14111
3137.80995,0.14034
3135.88136,0.13957
3133.95278,0.13909
3132.02419,0.13875
3130.09560,0.13830
3128.16702,0.13780
3126.23843,0.13732
3124.30984,0.13679
3122.38126,0.13619
3120.45267,0.13563
3118.52409,0.13530
3116.59550,0.13508
3114.66691,0.13474
3112.73833,0.13433
3110.80974,0.13388
3108.88115,0.13345
3106.95257,0.13294
3105.02398,0.13254
3103.09540,0.13232
3101.16681,0.13197
3099.23822,0.13171
3097.30964,0.13152
3095.38105,0.13100
3093.45246,0.13052
3091.52388,0.13030
3089.59529,0.13003
3087.66670,0.12975
3085.73812,0.12943
3083.80953,0.12902
3081.88095,0.12862
3079.95236,0.12823
3078.02377,0.12777
3076.09519,0.12728
3074.16660,0.12691
3072.23801,0.12647
3070.30943,0.12591
3068.38084,0.12553
3066.45225,0.12510
3064.52367,0.12457
3062.59508,0.12401
3060.66650,0.12339
3058.73791,0.12281
3056.80932,0.12217
3054.88074,0.12156
3052.95215,0.12099
3051.02356,0.12049
3049.09498,0.12004
3047.16639,0.11940
3045.23781,0.11876
3043.30922,0.11831
3041.38063,0.11787
3039.45205,0.11733
3037.52346,0.11669
3035.59487,0.11613
3033.66629,0.11574
3031.73770,0.11542
3029.80911,0.11508
3027.88053,0.11475
3025.95194,0.11447
3024.02336,0.11416
3022.09477,0.11387
3020.16618,0.11366
3018.23760,0.11340
3016.30901,0.11321
3014.38042,0.11310
3012.45184,0.11311
3010.52325,0.11325
3008.59467,0.11338
3006.66608,0.11368
3004.73749,0.11417
3002.80891,0.11453
3000.88032,0.11477
2998.95173,0.11519
2997.02315,0.11584
2995.09456,0.11662
2993.16597,0.11748
2991.23739,0.11840
2989.30880,0.11942
2987.38022,0.12056
2985.45163,0.12191
2983.52304,0.12350
2981.59446,0.12516
2979.66587,0.12702
2977.73728,0.12896
2975.80870,0.13083
2973.88011,0.13296
2971.95153,0.13521
2970.02294,0.13757
2968.09435,0.14013
2966.16577,0.14262
2964.23718,0.14496
2962.30859,0.14739
2960.38001,0.14983
2958.45142,0.15190
2956.52283,0.15370
2954.59425,0.15536
2952.66566,0.15690
2950.73708,0.15859
2948.80849,0.16071
2946.87990,0.16344
2944.95132,0.16674
2943.02273,0.17066
2941.09414,0.17523
2939.16556,0.18024
2937.23697,0.18547
2935.30838,0.19083
2933.37980,0.19615
2931.45121,0.20106
2929.52263,0.20557
2927.59404,0.20984
2925.66545,0.21319
2923.73687,0.21490
2921.80828,0.21507
2919.87969,0.21365
2917.95111,0.20952
2916.02252,0.20215
2914.09394,0.19266
2912.16535,0.18321
2910.23676,0.17552
2908.30818,0.16961
2906.37959,0.16498
2904.45100,0.16120
2902.52242,0.15772
2900.59383,0.15451
2898.66524,0.15169
2896.73666,0.14908
2894.80807,0.14646
2892.87949,0.14380
2890.95090,0.14138
2889.02231,0.13906
2887.09373,0.13672
2885.16514,0.13473
2883.23655,0.13328
2881.30797,0.13218
2879.37938,0.13134
2877.45080,0.13090
2875.52221,0.13090
2873.59362,0.13115
2871.66504,0.13149
2869.73645,0.13190
2867.80786,0.13260
2865.87928,0.13404
2863.95069,0.13655
2862.02210,0.14028
2860.09352,0.14527
2858.16493,0.15130
2856.23635,0.15757
2854.30776,0.16262
2852.37917,0.16491
2850.45059,0.16263
2848.52200,0.15467
2846.59341,0.14317
2844.66483,0.13164
2842.73624,0.12175
2840.80766,0.11376
2838.87907,0.10739
2836.95048,0.10237
2835.02190,0.09848
2833.09331,0.09532
2831.16472,0.09261
2829.23614,0.09022
2827.30755,0.08812
2825.37896,0.08632
2823.45038,0.08470
2821.52179,0.08320
2819.59321,0.08188
2817.66462,0.08065
2815.73603,0.07948
2813.80745,0.07847
2811.87886,0.07753
2809.95027,0.07660
2808.02169,0.07570
2806.09310,0.07480
2804.16451,0.07392
2802.23593,0.07305
2800.30734,0.07222
2798.37876,0.07152
2796.45017,0.07086
2794.52158,0.07023
2792.59300,0.06963
2790.66441,0.06903
2788.73582,0.06834
2786.80724,0.06768
2784.87865,0.06716
2782.95007,0.06659
2781.02148,0.06601
2779.09289,0.06549
2777.16431,0.06492
2775.23572,0.06445
2773.30713,0.06404
2771.37855,0.06363
2769.44996,0.06324
2767.52137,0.06281
2765.59279,0.06240
2763.66420,0.06203
2761.73562,0.06170
2759.80703,0.06132
2757.87844,0.06093
2755.94986,0.06063
2754.02127,0.06028
2752.09268,0.05990
2750.16410,0.05960
2748.23551,0.05929
2746.30693,0.05887
2744.37834,0.05849
2742.44975,0.05831
2740.52117,0.05810
2738.59258,0.05775
2736.66399,0.05745
2734.73541,0.05725
2732.80682,0.05698
2730.87823,0.05655
2728.94965,0.05619
2727.02106,0.05598
2725.09248,0.05567
2723.16389,0.05526
2721.23530,0.05490
2719.30672,0.05445
2717.37813,0.05399
2715.44954,0.05364
2713.52096,0.05334
2711.59237,0.05300
2709.66379,0.05259
2707.73520,0.05224
2705.80661,0.05193
2703.87803,0.05158
2701.94944,0.05120
2700.02085,0.05080
2698.09227,0.05051
2696.16368,0.05022
2694.23509,0.05001
2692.30651,0.04981
2690.37792,0.04945
2688.44934,0.04922
2686.52075,0.04906
2684.59216,0.04880
2682.66358,0.04854
2680.73499,0.04824
2678.80640,0.04788
2676.87782,0.04761
2674.94923,0.04741
2673.02064,0.04713
2671.09206,0.04680
2669.16347,0.04653
2667.23489,0.04630
2665.30630,0.04603
2663.37771,0.04572
2661.44913,0.04542
2659.52054,0.04504
2657.59195,0.04474
2655.66337,0.04449
2653.73478,0.04419
2651.80620,0.04393
2649.87761,0.04364
2647.94902,0.04335
2646.02044,0.04311
2644.09185,0.04286
2642.16326,0.04261
2640.23468,0.04230
2638.30609,0.04197
2636.37750,0.04176
2634.44892,0.04154
2632.52033,0.04120
2630.59175,0.04090
2628.66316,0.04068
2626.73457,0.04043
2624.80599,0.04007
2622.87740,0.03976
2620.94881,0.03958
2619.02023,0.03941
2617.09164,0.03917
2615.16306,0.03885
2613.23447,0.03848
2611.30588,0.03812
2609.37730,0.03782
2607.44871,0.03755
2605.52012,0.03722
2603.59154,0.03693
2601.66295,0.03666
2599.73436,0.03640
2597.80578,0.03615
2595.87719,0.03587
2593.94861,0.03560
2592.02002,0.03533
2590.09143,0.03506
2588.16285,0.03482
2586.23426,0.03456
2584.30567,0.03428
2582.37709,0.03406
2580.44850,0.03385
2578.51991,0.03362
2576.59133,0.03336
2574.66274,0.03308
2572.73416,0.03278
2570.80557,0.03250
2568.87698,0.03225
2566.94840,0.03197
2565.01981,0.03173
2563.09122,0.03157
2561.16264,0.03136
2559.23405,0.03116
2557.30547,0.03092
2555.37688,0.03074
2553.44829,0.03062
2551.51971,0.03040
2549.59112,0.03021
2547.66253,0.02999
2545.73395,0.02967
2543.80536,0.02951
2541.87677,0.02932
2539.94819,0.02905
2538.01960,0.02893
2536.09102,0.02876
2534.16243,0.02849
2532.23384,0.02830
2530.30526,0.02816
2528.37667,0.02802
2526.44808,0.02777
2524.51950,0.02751
2522.59091,0.02726
2520.66233,0.02701
2518.73374,0.02688
2516.80515,0.02667
2514.87657,0.02644
2512.94798,0.02625
2511.01939,0.02600
2509.09081,0.02580
2507.16222,0.02560
2505.23363,0.02535
2503.30505,0.02503
2501.37646,0.02473
2499.44788,0.02454
2497.51929,0.02429
2495.59070,0.02405
2493.66212,0.02388
2491.73353,0.02363
2489.80494,0.02335
2487.87636,0.02310
2485.94777,0.02286
2484.01919,0.02268
2482.09060,0.02250
2480.16201,0.02225
2478.23343,0.02194
2476.30484,0.02167
2474.37625,0.02144
2472.44767,0.02116
2470.51908,0.02085
2468.59049,0.02057
2466.66191,0.02040
2464.73332,0.02021
2462.80474,0.01991
2460.87615,0.01965
2458.94756,0.01940
2457.01898,0.01912
2455.09039,0.01891
2453.16180,0.01874
2451.23322,0.01852
2449.30463,0.01819
2447.37604,0.01794
2445.44746,0.01775
2443.51887,0.01748
2441.59029,0.01715
2439.66170,0.01686
2437.73311,0.01669
2435.80453,0.01648
2433.87594,0.01622
2431.94735,0.01602
2430.01877,0.01576
2428.09018,0.01544
2426.16160,0.01521
2424.23301,0.01498
2422.30442,0.01472
2420.37584,0.01453
2418.44725,0.01433
2416.51866,0.01407
2414.59008,0.01391
2412.66149,0.01378
2410.73290,0.01351
2408.80432,0.01326
2406.87573,0.01298
2404.94715,0.01268
2403.01856,0.01253
2401.08997,0.01238
2399.16139,0.01220
2397.23280,0.01201
2395.30421,0.01175
2393.37563,0.01151
2391.44704,0.01133
2389.51846,0.01115
2387.58987,0.01095
2385.66128,0.01078
2383.73270,0.01066
2381.80411,0.01048
2379.87552,0.01034
2377.94694,0.01029
2376.01835,0.01024
2374.08976,0.01014
2372.16118,0.01002
2370.23259,0.00993
2368.30401,0.00978
2366.37542,0.00960
2364.44683,0.00936
2362.51825,0.00903
2360.58966,0.00873
2358.66107,0.00843
2356.73249,0.00814
2354.80390,0.00780
2352.87532,0.00754
2350.94673,0.00750
2349.01814,0.00778
2347.08956,0.00814
2345.16097,0.00809
2343.23238,0.00789
2341.30380,0.00779
2339.37521,0.00768
2337.44662,0.00748
2335.51804,0.00720
2333.58945,0.00699
2331.66087,0.00673
2329.73228,0.00648
2327.80369,0.00633
2325.87511,0.00630
2323.94652,0.00631
2322.01793,0.00608
2320.08935,0.00582
2318.16076,0.00574
2316.23217,0.00569
2314.30359,0.00563
2312.37500,0.00554
2310.44642,0.00540
2308.51783,0.00531
2306.58924,0.00530
2304.66066,0.00517
2302.73207,0.00497
2300.80348,0.00492
2298.87490,0.00480
2296.94631,0.00459
2295.01773,0.00446
2293.08914,0.00437
2291.16055,0.00428
2289.23197,0.00421
2287.30338,0.00415
2285.37479,0.00404
2283.44621,0.00387
2281.51762,0.00371
2279.58903,0.00367
2277.66045,0.00356
2275.73186,0.00342
2273.80328,0.00343
2271.87469,0.00338
2269.94610,0.00321
2268.01752,0.00300
2266.08893,0.00290
2264.16034,0.00281
2262.23176,0.00264
2260.30317,0.00257
2258.37459,0.00251
2256.44600,0.00245
2254.51741,0.00245
2252.58883,0.00237
2250.66024,0.00232
2248.73165,0.00223
2246.80307,0.00203
2244.87448,0.00197
2242.94589,0.00197
2241.01731,0.00193
2239.08872,0.00184
2237.16014,0.00175
2235.23155,0.00171
2233.30296,0.00157
2231.37438,0.00142
2229.44579,0.00143
2227.51720,0.00137
2225.58862,0.00123
2223.66003,0.00120
2221.73145,0.00123
2219.80286,0.00113
2217.87427,0.00103
2215.94569,0.00095
2214.01710,0.00074
2212.08851,0.00062
2210.15993,0.00069
2208.23134,0.00072
2206.30275,0.00061
2204.37417,0.00050
2202.44558,0.00044
2200.51700,0.00043
2198.58841,0.00039
2196.65982,0.00029
2194.73124,0.00029
2192.80265,0.00032
2190.87406,0.00032
2188.94548,0.00030
2187.01689,0.00024
2185.08830,0.00026
2183.15972,0.00034
2181.23113,0.00034
2179.30255,0.00029
2177.37396,0.00026
2175.44537,0.00030
2173.51679,0.00028
2171.58820,0.00008
2169.65961,0.00000
2167.73103,0.00026
2165.80244,0.00042
2163.87386,0.00030
2161.94527,0.00028
2160.01668,0.00035
2158.08810,0.00039
2156.15951,0.00043
2154.23092,0.00039
2152.30234,0.00029
2150.37375,0.00033
2148.44516,0.00045
2146.51658,0.00044
2144.58799,0.00038
2142.65941,0.00041
2140.73082,0.00043
2138.80223,0.00041
2136.87365,0.00043
2134.94506,0.00042
2133.01647,0.00035
2131.08789,0.00027
2129.15930,0.00026
2127.23072,0.00029
2125.30213,0.00028
2123.37354,0.00024
2121.44496,0.00022
2119.51637,0.00020
2117.58778,0.00010
2115.65920,0.00002
2113.73061,0.00011
2111.80202,0.00014
2109.87344,0.00006
2107.94485,0.00002
2106.01627,-0.00001
2104.08768,0.00002
2102.15909,0.00007
2100.23051,0.00003
2098.30192,-0.00006
2096.37333,-0.00006
2094.44475,0.00004
2092.51616,0.00012
2090.58758,0.00011
2088.65899,0.00006
2086.73040,0.00001
2084.80182,-0.00001
2082.87323,-0.00001
2080.94464,0.00000
2079.01606,-0.00001
2077.08747,-0.00003
2075.15888,-0.00001
2073.23030,-0.00006
2071.30171,-0.00020
2069.37313,-0.00025
2067.44454,-0.00019
2065.51595,-0.00013
2063.58737,-0.00023
2061.65878,-0.00034
2059.73019,-0.00031
2057.80161,-0.00025
2055.87302,-0.00022
2053.94443,-0.00022
2052.01585,-0.00018
2050.08726,-0.00009
2048.15868,-0.00005
2046.23009,0.00004
2044.30150,0.00020
2042.37292,0.00036
2040.44433,0.00050
2038.51574,0.00066
2036.58716,0.00086
2034.65857,0.00109
2032.72999,0.00130
2030.80140,0.00140
2028.87281,0.00143
2026.94423,0.00145
2025.01564,0.00150
2023.08705,0.00149
2021.15847,0.00155
2019.22988,0.00167
2017.30129,0.00168
2015.37271,0.00176
2013.44412,0.00204
2011.51554,0.00226
2009.58695,0.00239
2007.65836,0.00259
2005.72978,0.00280
2003.80119,0.00293
2001.87260,0.00301
1999.94402,0.00304
1998.01543,0.00303
1996.08685,0.00303
1994.15826,0.00303
1992.22967,0.00295
1990.30109,0.00277
1988.37250,0.00263
1986.44391,0.00252
1984.51533,0.00245
1982.58674,0.00240
1980.65815,0.00235
1978.72957,0.00225
1976.80098,0.00216
1974.87240,0.00211
1972.94381,0.00199
1971.01522,0.00187
1969.08664,0.00168
1967.15805,0.00139
1965.22946,0.00121
1963.30088,0.00109
1961.37229,0.00094
1959.44371,0.00079
1957.51512,0.00069
1955.58653,0.00064
1953.65795,0.00061
1951.72936,0.00049
1949.80077,0.00038
1947.87219,0.00030
1945.94360,0.00027
1944.01501,0.00027
1942.08643,0.00010
1940.15784,0.00002
1938.22926,0.00009
1936.30067,0.00003
1934.37208,0.00001
1932.44350,-0.00002
1930.51491,-0.00012
1928.58632,-0.00013
1926.65774,-0.00010
1924.72915,0.00000
1922.80056,-0.00002
1920.87198,0.00009
1918.94339,0.00027
1917.01481,0.00023
1915.08622,0.00051
1913.15763,0.00108
1911.22905,0.00154
1909.30046,0.00207
1907.37187,0.00262
1905.44329,0.00316
1903.51470,0.00371
1901.58612,0.00428
1899.65753,0.00491
1897.72894,0.00548
1895.80036,0.00595
1893.87177,0.00638
1891.94318,0.00697
1890.01460,0.00742
1888.08601,0.00762
1886.15742,0.00803
1884.22884,0.00830
1882.30025,0.00839
1880.37167,0.00855
1878.44308,0.00871
1876.51449,0.00891
1874.58591,0.00898
1872.65732,0.00911
1870.72873,0.00930
1868.80015,0.00910
1866.87156,0.00853
1864.94298,0.00806
1863.01439,0.00764
1861.08580,0.00705
1859.15722,0.00635
1857.22863,0.00551
1855.30004,0.00473
1853.37146,0.00380
1851.44287,0.00297
1849.51428,0.00236
1847.58570,0.00189
1845.65711,0.00169
1843.72853,0.00075
1841.79994,0.00000
1839.87135,-0.00009
1837.94277,-0.00037
1836.01418,-0.00057
1834.08559,-0.00066
1832.15701,-0.00040
1830.22842,-0.00044
1828.29984,-0.00070
1826.37125,-0.00027
1824.44266,-0.00020
1822.51408,-0.00009
1820.58549,0.00037
1818.65690,0.00075
1816.72832,0.00126
1814.79973,0.00179
1812.87114,0.00249
1810.94256,0.00317
1809.01397,0.00385
1807.08539,0.00473
1805.15680,0.00570
1803.22821,0.00689
1801.29963,0.00799
1799.37104,0.00902
1797.44245,0.01026
1795.51387,0.01191
1793.58528,0.01362
1791.65669,0.01467
1789.72811,0.01583
1787.79952,0.01775
1785.87094,0.01961
1783.94235,0.02127
1782.01376,0.02304
1780.08518,0.02466
1778.15659,0.02626
1776.22800,0.02813
1774.29942,0.03019
1772.37083,0.03140
1770.44225,0.03231
1768.51366,0.03400
1766.58507,0.03539
1764.65649,0.03728
1762.72790,0.03929
1760.79931,0.04060
1758.87073,0.04287
1756.94214,0.04528
1755.01355,0.04770
1753.08497,0.05082
1751.15638,0.05372
1749.22780,0.05664
1747.29921,0.06009
1745.37062,0.06397
1743.44204,0.06806
1741.51345,0.07235
1739.58486,0.07624
1737.65628,0.08001
1735.72769,0.08430
1733.79911,0.08667
1731.87052,0.08832
1729.94193,0.09149
1728.01335,0.09414
1726.08476,0.09671
1724.15617,0.09938
1722.22759,0.10205
1720.29900,0.10558
1718.37041,0.10836
1716.44183,0.11001
1714.51324,0.11185
1712.58466,0.11425
1710.65607,0.11659
1708.72748,0.11866
1706.79890,0.12062
1704.87031,0.12213
1702.94172,0.12494
1701.01314,0.12767
1699.08455,0.12889
1697.15596,0.13186
1695.22738,0.13417
1693.29879,0.13609
1691.37021,0.13960
1689.44162,0.14199
1687.51303,0.14528
1685.58445,0.14873
1683.65586,0.14993
1681.72727,0.15238
1679.79869,0.15561
1677.87010,0.15893
1675.94152,0.16176
1674.01293,0.16359
1672.08434,0.16627
1670.15576,0.16874
1668.22717,0.17014
1666.29858,0.17194
1664.37000,0.17408
1662.44141,0.17505
1660.51282,0.17569
1658.58424,0.17658
1656.65565,0.17764
1654.72707,0.17902
1652.79848,0.17688
1650.86989,0.17461
1648.94131,0.17577
1647.01272,0.17550
1645.08413,0.17378
1643.15555,0.17325
1641.22696,0.17325
1639.29838,0.17311
1637.36979,0.17327
1635.44120,0.17241
1633.51262,0.17114
1631.58403,0.17113
1629.65544,0.17044
1627.72686,0.16900
1625.79827,0.16742
1623.86968,0.16556
1621.94110,0.16308
1620.01251,0.16129
1618.08393,0.16020
1616.15534,0.15713
1614.22675,0.15462
1612.29817,0.15321
1610.36958,0.15130
1608.44099,0.14955
1606.51241,0.14784
1604.58382,0.14640
1602.65524,0.14493
1600.72665,0.14341
1598.79806,0.14171
1596.86948,0.14002
1594.94089,0.13849
1593.01230,0.13678
1591.08372,0.13508
1589.15513,0.13325
1587.22654,0.13166
1585.29796,0.12997
1583.36937,0.12812
1581.44079,0.12630
1579.51220,0.12508
1577.58361,0.12441
1575.65503,0.12222
1573.72644,0.12065
1571.79785,0.12079
1569.86927,0.12015
1567.94068,0.11934
1566.01209,0.11936
1564.08351,0.11941
1562.15492,0.12042
1560.22634,0.12141
1558.29775,0.11986
1556.36916,0.11962
1554.44058,0.12067
1552.51199,0.12084
1550.58340,0.12132
1548.65482,0.12144
1546.72623,0.12175
1544.79765,0.12180
1542.86906,0.12157
1540.94047,0.12149
1539.01189,0.11933
1537.08330,0.11826
1535.15471,0.11864
1533.22613,0.11775
1531.29754,0.11654
1529.36895,0.11587
1527.44037,0.11508
1525.51178,0.11373
1523.58320,0.11308
1521.65461,0.11212
1519.72602,0.11066
1517.79744,0.11021
1515.86885,0.10896
1513.94026,0.10703
1512.01168,0.10474
1510.08309,0.10231
1508.15451,0.10028
1506.22592,0.09610
1504.29733,0.09177
1502.36875,0.08937
1500.44016,0.08674
1498.51157,0.08386
1496.58299,0.08049
1494.65440,0.07700
1492.72581,0.07499
1490.79723,0.07321
1488.86864,0.07099
1486.94006,0.06934
1485.01147,0.06851
1483.08288,0.06844
1481.15430,0.06871
1479.22571,0.06969
1477.29712,0.07179
1475.36854,0.07494
1473.43995,0.07918
1471.51137,0.08395
1469.58278,0.08930
1467.65419,0.09429
1465.72561,0.09690
1463.79702,0.09766
1461.86843,0.09831
1459.93985,0.09967
1458.01126,0.10062
1456.08267,0.09998
1454.15409,0.09989
1452.22550,0.10015
1450.29692,0.09982
1448.36833,0.09949
1446.43974,0.09902
1444.51116,0.09890
1442.58257,0.09885
1440.65398,0.09887
1438.72540,0.09933
1436.79681,0.09886
1434.86822,0.09815
1432.93964,0.09839
1431.01105,0.09847
1429.08247,0.09813
1427.15388,0.09819
1425.22529,0.09847
1423.29671,0.09871
1421.36812,0.09956
1419.43953,0.09985
1417.51095,0.09922
1415.58236,0.09929
1413.65378,0.09949
1411.72519,0.09949
1409.79660,0.09928
1407.86802,0.09890
1405.93943,0.09864
1404.01084,0.09803
1402.08226,0.09760
1400.15367,0.09696
1398.22508,0.09589
1396.29650,0.09507
1394.36791,0.09390
1392.43933,0.09294
1390.51074,0.09276
1388.58215,0.09254
1386.65357,0.09169
1384.72498,0.09101
1382.79639,0.09149
1380.86781,0.09251
1378.93922,0.09307
1377.01064,0.09289
1375.08205,0.09216
1373.15346,0.09104
1371.22488,0.08990
1369.29629,0.08880
1367.36770,0.08743
1365.43912,0.08616
1363.51053,0.08477
1361.58194,0.08323
1359.65336,0.08213
1357.72477,0.08121
1355.79619,0.08032
1353.86760,0.07958
1351.93901,0.07895
1350.01043,0.07834
1348.08184,0.07768
1346.15325,0.07699
1344.22467,0.07639
1342.29608,0.07599
1340.36750,0.07547
1338.43891,0.07471
1336.51032,0.07413
1334.58174,0.07377
1332.65315,0.07335
1330.72456,0.07282
1328.79598,0.07241
1326.86739,0.07221
1324.93880,0.07199
1323.01022,0.07164
1321.08163,0.07133
1319.15305,0.07100
1317.22446,0.07062
1315.29587,0.07034
1313.36729,0.07014
1311.43870,0.06994
1309.51011,0.06969
1307.58153,0.06940
1305.65294,0.06919
1303.72435,0.06901
1301.79577,0.06885
1299.86718,0.06878
1297.93860,0.06873
1296.01001,0.06876
1294.08142,0.06916
1292.15284,0.06979
1290.22425,0.07044
1288.29566,0.07120
1286.36708,0.07224
1284.43849,0.07352
1282.50991,0.07491
1280.58132,0.07638
1278.65273,0.07788
1276.72415,0.07934
1274.79556,0.08079
1272.86697,0.08231
1270.93839,0.08393
1269.00980,0.08573
1267.08121,0.08766
1265.15263,0.08959
1263.22404,0.09170
1261.29546,0.09409
1259.36687,0.09692
1257.43828,0.10045
1255.50970,0.10454
1253.58111,0.10900
1251.65252,0.11359
1249.72394,0.11812
1247.79535,0.12254
1245.86677,0.12685
1243.93818,0.13102
1242.00959,0.13503
1240.08101,0.13871
1238.15242,0.14189
1236.22383,0.14497
1234.29525,0.14793
1232.36666,0.15047
1230.43807,0.15272
1228.50949,0.15493
1226.58090,0.15722
1224.65232,0.15940
1222.72373,0.16155
1220.79514,0.16362
1218.86656,0.16559
1216.93797,0.16773
1215.00938,0.16991
1213.08080,0.17219
1211.15221,0.17452
1209.22363,0.17669
1207.29504,0.17858
1205.36645,0.18038
1203.43787,0.18238
1201.50928,0.18437
1199.58069,0.18626
1197.65211,0.18798
1195.72352,0.18960
1193.79493,0.19125
1191.86635,0.19278
1189.93776,0.19434
1188.00918,0.19591
1186.08059,0.19741
1184.15200,0.19882
1182.22342,0.20043
1180.29483,0.20236
1178.36624,0.20449
1176.43766,0.20715
1174.50907,0.20972
1172.58048,0.21209
1170.65190,0.21472
1168.72331,0.21729
1166.79473,0.22015
1164.86614,0.22299
1162.93755,0.22518
1161.00897,0.22675
1159.08038,0.22751
1157.15179,0.22794
1155.22321,0.22864
1153.29462,0.22976
1151.36604,0.23125
1149.43745,0.23270
1147.50886,0.23433
1145.58028,0.23645
1143.65169,0.23875
1141.72310,0.24135
1139.79452,0.24437
1137.86593,0.24749
1135.93734,0.25072
1134.00876,0.25416
1132.08017,0.25766
1130.15159,0.26091
1128.22300,0.26455
1126.29441,0.26922
1124.36583,0.27408
1122.43724,0.27891
1120.50865,0.28362
1118.58007,0.28852
1116.65148,0.29415
1114.72290,0.29960
1112.79431,0.30466
1110.86572,0.30984
1108.93714,0.31524
1107.00855,0.32013
1105.07996,0.32401
1103.15138,0.32764
1101.22279,0.33054
1099.29420,0.33237
1097.36562,0.33362
1095.43703,0.33465
1093.50845,0.33569
1091.57986,0.33598
1089.65127,0.33571
1087.72269,0.33549
1085.79410,0.33513
1083.86551,0.33448
1081.93693,0.33365
1080.00834,0.33286
1078.07976,0.33199
1076.15117,0.33095
1074.22258,0.33002
1072.29400,0.32934
1070.36541,0.32883
1068.43682,0.32837
1066.50824,0.32828
1064.57965,0.32841
1062.65106,0.32826
1060.72248,0.32795
1058.79389,0.32685
1056.86531,0.32501
1054.93672,0.32360
1053.00813,0.32229
1051.07955,0.32124
1049.15096,0.32095
1047.22237,0.32120
1045.29379,0.32215
1043.36520,0.32384
1041.43661,0.32609
1039.50803,0.32807
1037.57944,0.32981
1035.65086,0.33156
1033.72227,0.33237
1031.79368,0.33231
1029.86510,0.33155
1027.93651,0.32985
1026.00792,0.32791
1024.07934,0.32597
1022.15075,0.32343
1020.22217,0.32074
1018.29358,0.31843
1016.36499,0.31601
1014.43641,0.31368
1012.50782,0.31125
1010.57923,0.30847
1008.65065,0.30581
1006.72206,0.30286
1004.79347,0.29932
1002.86489,0.29543
1000.93630,0.29141
999.00772,0.28709
997.07913,0.28262
995.15054,0.27811
993.22196,0.27329
991.29337,0.26809
989.36478,0.26236
987.43620,0.25662
985.50761,0.25048
983.57903,0.24327
981.65044,0.23557
979.72185,0.22772
977.79327,0.21939
975.86468,0.21010
973.93609,0.20063
972.00751,0.19153
970.07892,0.18269
968.15033,0.17432
966.22175,0.16618
964.29316,0.15847
962.36458,0.15147
960.43599,0.14532
958.50740,0.13995
956.57882,0.13483
954.65023,0.13040
952.72164,0.12674
950.79306,0.12336
948.86447,0.12035
946.93589,0.11799
945.00730,0.11615
943.07871,0.11431
941.15013,0.11259
939.22154,0.11115
937.29295,0.10990
935.36437,0.10866
933.43578,0.10718
931.50719,0.10574
929.57861,0.10444
927.65002,0.10326
925.72144,0.10246
923.79285,0.10183
921.86426,0.10104
919.93568,0.10054
918.00709,0.10051
916.07850,0.10021
914.14992,0.09945
912.22133,0.09805
910.29274,0.09526
908.36416,0.09142
906.43557,0.08682
904.50699,0.08123
902.57840,0.07533
900.64981,0.06944
898.72123,0.06372
896.79264,0.05867
894.86405,0.05421
892.93547,0.05027
891.00688,0.04673
889.07830,0.04322
887.14971,0.03979
885.22112,0.03673
883.29254,0.03389
881.36395,0.03110
879.43536,0.02827
877.50678,0.02520
875.57819,0.02205
873.64960,0.01913
871.72102,0.01656
869.79243,0.01393
867.86385,0.01131
865.93526,0.00878
864.00667,0.00607
862.07809,0.00390
860.14950,0.00235
858.22091,0.00125
856.29233,0.00068
854.36374,0.00000
852.43516,-0.00026
850.50657,0.00018
848.57798,0.00095
846.64940,0.00215
844.72081,0.00364
842.79222,0.00574
840.86364,0.00852
838.93505,0.01217
837.00646,0.01606
835.07788,0.01911
833.14929,0.02175
831.22071,0.02390
829.29212,0.02527
827.36353,0.02622
825.43495,0.02716
823.50636,0.02789
821.57777,0.02820
819.64919,0.02867
817.72060,0.02955
815.79201,0.03124
813.86343,0.03357
811.93484,0.03641
810.00626,0.04110
808.07767,0.04778
806.14908,0.05573
804.22050,0.06385
802.29191,0.07015
800.36332,0.07284
798.43474,0.07150
796.50615,0.06764
794.57757,0.06266
792.64898,0.05752
790.72039,0.05331
788.79181,0.05015
786.86322,0.04859
784.93463,0.04919
783.00605,0.05130
781.07746,0.05326
779.14887,0.05241
777.22029,0.04822
775.29170,0.04260
773.36312,0.03671
771.43453,0.03161
769.50594,0.02787
767.57736,0.02528
765.64877,0.02404
763.72018,0.02389
761.79160,0.02415
759.86301,0.02440
757.93443,0.02467
756.00584,0.02474
754.07725,0.02467
752.14867,0.02445
750.22008,0.02353
748.29149,0.02214
746.36291,0.02004
744.43432,0.01760
742.50573,0.01561
740.57715,0.01305
738.64856,0.01027
736.71998,0.00849
734.79139,0.00715
732.86280,0.00563
730.93422,0.00472
729.00563,0.00494
727.07704,0.00543
725.14846,0.00604
723.21987,0.00660
721.29129,0.00633
719.36270,0.00508
717.43411,0.00345
715.50553,0.00248
713.57694,0.00177
711.64835,0.00102
709.71977,0.00125
707.79118,0.00268
705.86259,0.00482
703.93401,0.00731
702.00542,0.01059
700.07684,0.01507
698.14825,0.02023
696.21966,0.02385
694.29108,0.02334
692.36249,0.01947
690.43390,0.01498
688.50532,0.01196
686.57673,0.01018
684.64814,0.00859
682.71956,0.00721
680.79097,0.00619
678.86239,0.00563
676.93380,0.00478
675.00521,0.00356
673.07663,0.00284
671.14804,0.00235
669.21945,0.00189
667.29087,0.00129
665.36228,0.00049
663.43370,0.00000
661.50511,0.00022
659.57652,0.00044
657.64794,-0.00016
655.71935,0.00016
653.79076,0.00143
651.86218,0.00237
649.93359,0.00310
648.00500,0.00283
646.07642,0.00164
644.14783,0.00170
642.21925,0.00296
640.29066,0.00364
638.36207,0.00408
636.43349,0.00444
634.50490,0.00467
632.57631,0.00601
630.64773,0.00761
628.71914,0.00752
626.79056,0.00697
624.86197,0.00771
622.93338,0.00808
621.00480,0.00837
619.07621,0.00977
617.14762,0.01080
615.21904,0.01125
613.29045,0.01095
611.36186,0.01095
609.43328,0.01222
607.50469,0.01346
605.57611,0.01521
603.64752,0.01769
601.71893,0.01978
599.79035,0.02117
597.86176,0.02321
595.93317,0.02693
594.00459,0.02970
592.07600,0.03080
590.14742,0.03353
588.21883,0.03763
586.29024,0.04110
584.36166,0.04456
582.43307,0.04758
580.50448,0.05054
578.57590,0.05404
576.64731,0.05769
574.71872,0.06299
572.79014,0.06800
570.86155,0.07181
568.93297,0.07643
567.00438,0.08154
565.07579,0.08700
563.14721,0.09230
561.21862,0.09879
559.29003,0.10515
557.36145,0.10800
555.43286,0.11006
553.50427,0.11323
551.57569,0.11800
549.64710,0.12348
547.71852,0.12813
545.78993,0.13275
543.86134,0.13674
541.93276,0.14061
540.00417,0.14552
538.07558,0.15197
536.14700,0.15741
534.21841,0.15841
532.28983,0.15985
530.36124,0.16277
528.43265,0.16244
526.50407,0.16124
524.57548,0.16062
522.64689,0.15887
520.71831,0.15650
518.78972,0.15295
516.86113,0.14797
514.93255,0.14265
513.00396,0.13822
511.07538,0.13428
509.14679,0.12876
507.21820,0.12537
505.28962,0.12643
503.36103,0.12696
501.43244,0.12701
499.50386,0.12908
497.57527,0.13305
495.64669,0.13924
493.71810,0.14743
491.78951,0.15611
489.86093,0.16518
487.93234,0.17634
486.00375,0.18943
484.07517,0.20256
482.14658,0.21096
480.21799,0.21763
478.28941,0.22567
476.36082,0.22877
474.43224,0.23317
472.50365,0.23814
470.57506,0.23724
468.64648,0.23394
466.71789,0.22576
464.78930,0.21463
462.86072,0.20170
460.93213,0.18916
459.00355,0.17595
457.07496,0.16228
455.14637,0.15283
453.21779,0.14363
451.28920,0.13520
449.36061,0.12590
447.43203,0.11832
445.50344,0.11416
443.57485,0.10710
441.64627,0.09641
439.71768,0.08794
437.78910,0.08711
435.86051,0.08703
433.93192,0.08679
432.00334,0.08645
430.07475,0.08165
428.14616,0.07323
426.21758,0.06714
424.28899,0.06833
422.36040,0.06848
420.43182,0.06800
418.50323,0.05953
416.57465,0.04833
414.64606,0.04293
412.71747,0.03482
410.78889,0.03397
408.86030,0.02693
406.93171,0.01218
405.00313,0.00216
403.07454,0.00000
401.14596,0.00339
399.21737,0.00000
