3747.24323,0.00000
3745.31464,0.00149
3743.38605,0.00067
3741.45747,0.00060
3739.52888,0.00214
3737.60030,0.00310
3735.67171,0.00335
3733.74312,0.00337
3731.81454,0.00375
3729.88595,0.00421
3727.95736,0.00530
3726.02878,0.00635
3724.10019,0.00713
3722.17161,0.00859
3720.24302,0.00993
3718.31443,0.01178
3716.38585,0.01408
3714.45726,0.01687
3712.52867,0.01987
3710.60009,0.02219
3708.67150,0.02519
3706.74291,0.02847
3704.81433,0.03223
3702.88574,0.03580
3700.95716,0.03813
3699.02857,0.04020
3697.09998,0.04141
3695.17140,0.04232
3693.24281,0.04296
3691.31422,0.04376
3689.38564,0.04483
3687.45705,0.04539
3685.52846,0.04721
3683.59988,0.05008
3681.67129,0.05317
3679.74271,0.05648
3677.81412,0.06074
3675.88553,0.06485
3673.95695,0.06802
3672.02836,0.07281
3670.09977,0.07749
3668.17119,0.08116
3666.24260,0.08569
3664.31402,0.09017
3662.38543,0.09450
3660.45684,0.09875
3658.52826,0.10312
3656.59967,0.10697
3654.67108,0.10990
3652.74250,0.11373
3650.81391,0.11747
3648.88532,0.11997
3646.95674,0.12228
3645.02815,0.12517
3643.09957,0.12838
3641.17098,0.13146
3639.24239,0.13424
3637.31381,0.13675
3635.38522,0.13972
3633.45663,0.14257
3631.52805,0.14544
3629.59946,0.14815
3627.67088,0.14925
3625.74229,0.15059
3623.81370,0.15213
3621.88512,0.15306
3619.95653,0.15316
3618.02794,0.15161
3616.09936,0.15019
3614.17077,0.14919
3612.24218,0.14808
3610.31360,0.14736
3608.38501,0.14634
3606.45643,0.14503
3604.52784,0.14431
3602.59925,0.14400
3600.67067,0.14359
3598.74208,0.14308
3596.81349,0.14265
3594.88491,0.14228
3592.95632,0.14179
3591.02774,0.14168
3589.09915,0.14186
3587.17056,0.14167
3585.24198,0.14155
3583.31339,0.14188
3581.38480,0.14245
3579.45622,0.14314
3577.52763,0.14385
3575.59904,0.14448
3573.67046,0.14510
3571.74187,0.14598
3569.81329,0.14703
3567.88470,0.14795
3565.95611,0.14854
3564.02753,0.14944
3562.09894,0.15079
3560.17035,0.15173
3558.24177,0.15250
3556.31318,0.15350
3554.38459,0.15451
3552.45601,0.15543
3550.52742,0.15625
3548.59884,0.15725
3546.67025,0.15833
3544.74166,0.15920
3542.81308,0.16008
3540.88449,0.16109
3538.95590,0.16224
3537.02732,0.16329
3535.09873,0.16412
3533.17015,0.16523
3531.24156,0.16651
3529.31297,0.16735
3527.38439,0.16808
3525.45580,0.16899
3523.52721,0.16990
3521.59863,0.17087
3519.67004,0.17181
3517.74145,0.17277
3515.81287,0.17376
3513.88428,0.17468
3511.95570,0.17575
3510.02711,0.17691
3508.09852,0.17788
3506.16994,0.17880
3504.24135,0.17981
3502.31276,0.18072
3500.38418,0.18154
3498.45559,0.18238
3496.52701,0.18319
3494.59842,0.18405
3492.66983,0.18496
3490.74125,0.18593
3488.81266,0.18692
3486.88407,0.18773
3484.95549,0.18848
3483.02690,0.18932
3481.09831,0.19018
3479.16973,0.19106
3477.24114,0.19182
3475.31256,0.19248
3473.38397,0.19330
3471.45538,0.19414
3469.52680,0.19480
3467.59821,0.19531
3465.66962,0.19601
3463.74104,0.19681
3461.81245,0.19745
3459.88386,0.19840
3457.95528,0.19933
3456.02669,0.19996
3454.09811,0.20060
3452.16952,0.20116
3450.24093,0.20178
3448.31235,0.20248
3446.38376,0.20321
3444.45517,0.20374
3442.52659,0.20411
3440.59800,0.20463
3438.66942,0.20517
3436.74083,0.20576
3434.81224,0.20626
3432.88366,0.20667
3430.95507,0.20725
3429.02648,0.20783
3427.09790,0.20829
3425.16931,0.20882
3423.24072,0.20935
3421.31214,0.20971
3419.38355,0.21000
3417.45497,0.21037
3415.52638,0.21100
3413.59779,0.21144
3411.66921,0.21160
3409.74062,0.21192
3407.81203,0.21222
3405.88345,0.21259
3403.95486,0.21288
3402.02628,0.21307
3400.09769,0.21329
3398.16910,0.21353
3396.24052,0.21388
3394.31193,0.21400
3392.38334,0.21402
3390.45476,0.21414
3388.52617,0.21429
3386.59758,0.21444
3384.66900,0.21459
3382.74041,0.21480
3380.81183,0.21499
3378.88324,0.21533
3376.95465,0.21559
3375.02607,0.21563
3373.09748,0.21563
3371.16889,0.21573
3369.24031,0.21576
3367.31172,0.21560
3365.38314,0.21573
3363.45455,0.21600
3361.52596,0.21625
3359.59738,0.21642
3357.66879,0.21637
3355.74020,0.21640
3353.81162,0.21648
3351.88303,0.21666
3349.95444,0.21665
3348.02586,0.21657
3346.09727,0.21666
3344.16869,0.21667
3342.24010,0.21663
3340.31151,0.21660
3338.38293,0.21659
3336.45434,0.21662
3334.52575,0.21663
3332.59717,0.21655
3330.66858,0.21642
3328.73999,0.21631
3326.81141,0.21610
3324.88282,0.21603
3322.95424,0.21600
3321.02565,0.21586
3319.09706,0.21580
3317.16848,0.21570
3315.23989,0.21548
3313.31130,0.21530
3311.38272,0.21529
3309.45413,0.21525
3307.52555,0.21508
3305.59696,0.21491
3303.66837,0.21481
3301.73979,0.21461
3299.81120,0.21426
3297.88261,0.21409
3295.95403,0.21401
3294.02544,0.21377
3292.09685,0.21344
3290.16827,0.21307
3288.23968,0.21271
3286.31110,0.21221
3284.38251,0.21190
3282.45392,0.21168
3280.52534,0.21115
3278.59675,0.21058
3276.66816,0.20999
3274.73958,0.20921
3272.81099,0.20852
3270.88241,0.20794
3268.95382,0.20720
3267.02523,0.20645
3265.09665,0.20575
3263.16806,0.20490
3261.23947,0.20405
3259.31089,0.20320
3257.38230,0.20226
3255.45371,0.20145
3253.52513,0.20071
3251.59654,0.19990
3249.66796,0.19910
3247.73937,0.19833
3245.81078,0.19751
3243.88220,0.19671
3241.95361,0.19612
3240.02502,0.19548
3238.09644,0.19457
3236.16785,0.19380
3234.23927,0.19312
3232.31068,0.19230
3230.38209,0.19159
3228.45351,0.19105
3226.52492,0.19042
3224.59633,0.18962
3222.66775,0.18894
3220.73916,0.18824
3218.81057,0.18748
3216.88199,0.18681
3214.95340,0.18616
3213.02482,0.18564
3211.09623,0.18503
3209.16764,0.18419
3207.23906,0.18340
3205.31047,0.18266
3203.38188,0.18190
3201.45330,0.18102
3199.52471,0.18021
3197.59612,0.17947
3195.66754,0.17865
3193.73895,0.17788
3191.81037,0.17713
3189.88178,0.17645
3187.95319,0.17575
3186.02461,0.17508
3184.09602,0.17443
3182.16743,0.17351
3180.23885,0.17265
3178.31026,0.17181
3176.38168,0.17082
3174.45309,0.16985
3172.52450,0.16902
3170.59592,0.16832
3168.66733,0.16752
3166.73874,0.16675
3164.81016,0.16596
3162.88157,0.16516
3160.95298,0.16438
3159.02440,0.16346
3157.09581,0.16279
3155.16723,0.16216
3153.23864,0.16134
3151.31005,0.16066
3149.38147,0.16000
3147.45288,0.15935
3145.52429,0.15872
3143.59571,0.15810
3141.66712,0.15747
3139.73854,0.15684
3137.80995,0.15623
3135.88136,0.15568
3133.95278,0.15508
3132.02419,0.15429
3130.09560,0.15364
3128.16702,0.15325
3126.23843,0.15286
3124.30984,0.15241
3122.38126,0.15187
3120.45267,0.15127
3118.52409,0.15073
3116.59550,0.15036
3114.66691,0.14994
3112.73833,0.14950
3110.80974,0.14912
3108.88115,0.14871
3106.95257,0.14833
3105.02398,0.14790
3103.09540,0.14753
3101.16681,0.14717
3099.23822,0.14673
3097.30964,0.14645
3095.38105,0.14608
3093.45246,0.14549
3091.52388,0.14508
3089.59529,0.14496
3087.66670,0.14469
3085.73812,0.14411
3083.80953,0.14362
3081.88095,0.14322
3079.95236,0.14278
3078.02377,0.14231
3076.09519,0.14177
3074.16660,0.14125
3072.23801,0.14081
3070.30943,0.14040
3068.38084,0.14001
3066.45225,0.13961
3064.52367,0.13901
3062.59508,0.13820
3060.66650,0.13750
3058.73791,0.13700
3056.80932,0.13638
3054.88074,0.13566
3052.95215,0.13501
3051.02356,0.13441
3049.09498,0.13380
3047.16639,0.13316
3045.23781,0.13251
3043.30922,0.13201
3041.38063,0.13162
3039.45205,0.13110
3037.52346,0.13052
3035.59487,0.12999
3033.66629,0.12947
3031.73770,0.12915
3029.80911,0.12887
3027.88053,0.12842
3025.95194,0.12797
3024.02336,0.12762
3022.09477,0.12730
3020.16618,0.12694
3018.23760,0.12671
3016.30901,0.12680
3014.38042,0.12682
3012.45184,0.12665
3010.52325,0.12668
3008.59467,0.12689
3006.66608,0.12717
3004.73749,0.12751
3002.80891,0.12773
3000.88032,0.12805
2998.95173,0.12862
2997.02315,0.12916
2995.09456,0.12966
2993.16597,0.13026
2991.23739,0.13113
2989.30880,0.13229
2987.38022,0.13365
2985.45163,0.13506
2983.52304,0.13653
2981.59446,0.13829
2979.66587,0.14012
2977.73728,0.14203
2975.80870,0.14411
2973.88011,0.14633
2971.95153,0.14876
2970.02294,0.15129
2968.09435,0.15400
2966.16577,0.15679
2964.23718,0.15949
2962.30859,0.16208
2960.38001,0.16436
2958.45142,0.16646
2956.52283,0.16829
2954.59425,0.16970
2952.66566,0.17097
2950.73708,0.17251
2948.80849,0.17460
2946.87990,0.17720
2944.95132,0.18034
2943.02273,0.18427
2941.09414,0.18895
2939.16556,0.19392
2937.23697,0.19913
2935.30838,0.20461
2933.37980,0.20994
2931.45121,0.21495
2929.52263,0.21976
2927.59404,0.22420
2925.66545,0.22769
2923.73687,0.23005
2921.80828,0.23119
2919.87969,0.23040
2917.95111,0.22674
2916.02252,0.21918
2914.09394,0.20870
2912.16535,0.19829
2910.23676,0.18983
2908.30818,0.18354
2906.37959,0.17872
2904.45100,0.17457
2902.52242,0.17091
2900.59383,0.16780
2898.66524,0.16483
2896.73666,0.16187
2894.80807,0.15906
2892.87949,0.15630
2890.95090,0.15377
2889.02231,0.15148
2887.09373,0.14934
2885.16514,0.14731
2883.23655,0.14558
2881.30797,0.14444
2879.37938,0.14363
2877.45080,0.14324
2875.52221,0.14322
2873.59362,0.14335
2871.66504,0.14370
2869.73645,0.14417
2867.80786,0.14500
2865.87928,0.14648
2863.95069,0.14891
2862.02210,0.15253
2860.09352,0.15760
2858.16493,0.16402
2856.23635,0.17059
2854.30776,0.17598
2852.37917,0.17863
2850.45059,0.17663
2848.52200,0.16874
2846.59341,0.15668
2844.66483,0.14442
2842.73624,0.13403
2840.80766,0.12572
2838.87907,0.11915
2836.95048,0.11380
2835.02190,0.10954
2833.09331,0.10600
2831.16472,0.10294
2829.23614,0.10032
2827.30755,0.09808
2825.37896,0.09614
2823.45038,0.09446
2821.52179,0.09302
2819.59321,0.09160
2817.66462,0.09017
2815.73603,0.08884
2813.80745,0.08761
2811.87886,0.08651
2809.95027,0.08554
2808.02169,0.08454
2806.09310,0.08356
2804.16451,0.08274
2802.23593,0.08191
2800.30734,0.08100
2798.37876,0.08024
2796.45017,0.07946
2794.52158,0.07863
2792.59300,0.07788
2790.66441,0.07711
2788.73582,0.07640
2786.80724,0.07578
2784.87865,0.07518
2782.95007,0.07455
2781.02148,0.07383
2779.09289,0.07308
2777.16431,0.07255
2775.23572,0.07220
2773.30713,0.07178
2771.37855,0.07123
2769.44996,0.07065
2767.52137,0.07015
2765.59279,0.06973
2763.66420,0.06932
2761.73562,0.06894
2759.80703,0.06853
2757.87844,0.06807
2755.94986,0.06770
2754.02127,0.06736
2752.09268,0.06694
2750.16410,0.06653
2748.23551,0.06619
2746.30693,0.06588
2744.37834,0.06559
2742.44975,0.06527
2740.52117,0.06492
2738.59258,0.06468
2736.66399,0.06440
2734.73541,0.06394
2732.80682,0.06357
2730.87823,0.06321
2728.94965,0.06280
2727.02106,0.06254
2725.09248,0.06221
2723.16389,0.06177
2721.23530,0.06134
2719.30672,0.06089
2717.37813,0.06048
2715.44954,0.06008
2713.52096,0.05974
2711.59237,0.05939
2709.66379,0.05895
2707.73520,0.05850
2705.80661,0.05809
2703.87803,0.05777
2701.94944,0.05745
2700.02085,0.05710
2698.09227,0.05677
2696.16368,0.05642
2694.23509,0.05618
2692.30651,0.05597
2690.37792,0.05570
2688.44934,0.05545
2686.52075,0.05518
2684.59216,0.05493
2682.66358,0.05464
2680.73499,0.05430
2678.80640,0.05398
2676.87782,0.05372
2674.94923,0.05343
2673.02064,0.05310
2671.09206,0.05281
2669.16347,0.05251
2667.23489,0.05223
2665.30630,0.05201
2663.37771,0.05162
2661.44913,0.05124
2659.52054,0.05102
2657.59195,0.05072
2655.66337,0.05035
2653.73478,0.05013
2651.80620,0.04992
2649.87761,0.04961
2647.94902,0.04929
2646.02044,0.04906
2644.09185,0.04882
2642.16326,0.04848
2640.23468,0.04819
2638.30609,0.04791
2636.37750,0.04764
2634.44892,0.04737
2632.52033,0.04702
2630.59175,0.04670
2628.66316,0.04637
2626.73457,0.04600
2624.80599,0.04572
2622.87740,0.04553
2620.94881,0.04525
2619.02023,0.04485
2617.09164,0.04453
2615.16306,0.04429
2613.23447,0.04403
2611.30588,0.04376
2609.37730,0.04339
2607.44871,0.04303
2605.52012,0.04274
2603.59154,0.04238
2601.66295,0.04204
2599.73436,0.04178
2597.80578,0.04147
2595.87719,0.04118
2593.94861,0.04090
2592.02002,0.04054
2590.09143,0.04025
2588.16285,0.03997
2586.23426,0.03959
2584.30567,0.03932
2582.37709,0.03909
2580.44850,0.03872
2578.51991,0.03839
2576.59133,0.03813
2574.66274,0.03778
2572.73416,0.03736
2570.80557,0.03701
2568.87698,0.03682
2566.94840,0.03666
2565.01981,0.03635
2563.09122,0.03603
2561.16264,0.03579
2559.23405,0.03551
2557.30547,0.03523
2555.37688,0.03501
2553.44829,0.03476
2551.51971,0.03450
2549.59112,0.03427
2547.66253,0.03404
2545.73395,0.03383
2543.80536,0.03361
2541.87677,0.03332
2539.94819,0.03305
2538.01960,0.03276
2536.09102,0.03246
2534.16243,0.03224
2532.23384,0.03200
2530.30526,0.03168
2528.37667,0.03146
2526.44808,0.03130
2524.51950,0.03101
2522.59091,0.03065
2520.66233,0.03040
2518.73374,0.03016
2516.80515,0.02985
2514.87657,0.02956
2512.94798,0.02932
2511.01939,0.02911
2509.09081,0.02890
2507.16222,0.02860
2505.23363,0.02831
2503.30505,0.02804
2501.37646,0.02775
2499.44788,0.02750
2497.51929,0.02723
2495.59070,0.02695
2493.66212,0.02671
2491.73353,0.02644
2489.80494,0.02611
2487.87636,0.02588
2485.94777,0.02569
2484.01919,0.02534
2482.09060,0.02501
2480.16201,0.02474
2478.23343,0.02450
2476.30484,0.02423
2474.37625,0.02392
2472.44767,0.02370
2470.51908,0.02344
2468.59049,0.02313
2466.66191,0.02286
2464.73332,0.02259
2462.80474,0.02238
2460.87615,0.02217
2458.94756,0.02189
2457.01898,0.02163
2455.09039,0.02140
2453.16180,0.02109
2451.23322,0.02074
2449.30463,0.02044
2447.37604,0.02016
2445.44746,0.01993
2443.51887,0.01971
2441.59029,0.01948
2439.66170,0.01927
2437.73311,0.01900
2435.80453,0.01866
2433.87594,0.01839
2431.94735,0.01820
2430.01877,0.01798
2428.09018,0.01776
2426.16160,0.01750
2424.23301,0.01722
2422.30442,0.01704
2420.37584,0.01680
2418.44725,0.01646
2416.51866,0.01622
2414.59008,0.01605
2412.66149,0.01580
2410.73290,0.01552
2408.80432,0.01527
2406.87573,0.01502
2404.94715,0.01475
2403.01856,0.01449
2401.08997,0.01424
2399.16139,0.01397
2397.23280,0.01373
2395.30421,0.01355
2393.37563,0.01331
2391.44704,0.01309
2389.51846,0.01285
2387.58987,0.01255
2385.66128,0.01236
2383.73270,0.01227
2381.80411,0.01213
2379.87552,0.01190
2377.94694,0.01163
2376.01835,0.01146
2374.08976,0.01138
2372.16118,0.01126
2370.23259,0.01110
2368.30401,0.01087
2366.37542,0.01062
2364.44683,0.01043
2362.51825,0.01021
2360.58966,0.00997
2358.66107,0.00970
2356.73249,0.00933
2354.80390,0.00891
2352.87532,0.00861
2350.94673,0.00855
2349.01814,0.00872
2347.08956,0.00892
2345.16097,0.00889
2343.23238,0.00872
2341.30380,0.00856
2339.37521,0.00836
2337.44662,0.00813
2335.51804,0.00789
2333.58945,0.00765
2331.66087,0.00740
2329.73228,0.00723
2327.80369,0.00710
2325.87511,0.00690
2323.94652,0.00671
2322.01793,0.00655
2320.08935,0.00635
2318.16076,0.00620
2316.23217,0.00613
2314.30359,0.00594
2312.37500,0.00567
2310.44642,0.00547
2308.51783,0.00534
2306.58924,0.00526
2304.66066,0.00516
2302.73207,0.00502
2300.80348,0.00488
2298.87490,0.00475
2296.94631,0.00459
2295.01773,0.00437
2293.08914,0.00425
2291.16055,0.00410
2289.23197,0.00397
2287.30338,0.00392
2285.37479,0.00381
2283.44621,0.00370
2281.51762,0.00354
2279.58903,0.00342
2277.66045,0.00337
2275.73186,0.00335
2273.80328,0.00334
2271.87469,0.00320
2269.94610,0.00295
2268.01752,0.00275
2266.08893,0.00267
2264.16034,0.00264
2262.23176,0.00258
2260.30317,0.00252
2258.37459,0.00241
2256.44600,0.00234
2254.51741,0.00225
2252.58883,0.00216
2250.66024,0.00212
2248.73165,0.00200
2246.80307,0.00188
2244.87448,0.00190
2242.94589,0.00195
2241.01731,0.00186
2239.08872,0.00174
2237.16014,0.00167
2235.23155,0.00161
2233.30296,0.00160
2231.37438,0.00153
2229.44579,0.00134
2227.51720,0.00127
2225.58862,0.00127
2223.66003,0.00117
2221.73145,0.00110
2219.80286,0.00105
2217.87427,0.00099
2215.94569,0.00097
2214.01710,0.00084
2212.08851,0.00072
2210.15993,0.00069
2208.23134,0.00055
2206.30275,0.00043
2204.37417,0.00042
2202.44558,0.00054
2200.51700,0.00055
2198.58841,0.00035
2196.65982,0.00029
2194.73124,0.00030
2192.80265,0.00027
2190.87406,0.00028
2188.94548,0.00031
2187.01689,0.00036
2185.08830,0.00033
2183.15972,0.00027
2181.23113,0.00026
2179.30255,0.00027
2177.37396,0.00026
2175.44537,0.00025
2173.51679,0.00026
2171.58820,0.00014
2169.65961,0.00000
2167.73103,0.00010
2165.80244,0.00022
2163.87386,0.00021
2161.94527,0.00027
2160.01668,0.00035
2158.08810,0.00040
2156.15951,0.00044
2154.23092,0.00042
2152.30234,0.00043
2150.37375,0.00045
2148.44516,0.00041
2146.51658,0.00038
2144.58799,0.00035
2142.65941,0.00031
2140.73082,0.00031
2138.80223,0.00043
2136.87365,0.00050
2134.94506,0.00046
2133.01647,0.00039
2131.08789,0.00033
2129.15930,0.00030
2127.23072,0.00026
2125.30213,0.00021
2123.37354,0.00018
2121.44496,0.00015
2119.51637,0.00018
2117.58778,0.00017
2115.65920,0.00005
2113.73061,0.00000
2111.80202,0.00005
2109.87344,0.00004
2107.94485,0.00005
2106.01627,0.00005
2104.08768,-0.00000
2102.15909,-0.00003
2100.23051,-0.00004
2098.30192,0.00001
2096.37333,0.00008
2094.44475,0.00002
2092.51616,-0.00007
2090.58758,-0.00009
2088.65899,-0.00004
2086.73040,-0.00005
2084.80182,-0.00008
2082.87323,-0.00004
2080.94464,0.00000
2079.01606,-0.00005
2077.08747,-0.00013
2075.15888,-0.00018
2073.23030,-0.00025
2071.30171,-0.00028
2069.37313,-0.00022
2067.44454,-0.00023
2065.51595,-0.00028
2063.58737,-0.00032
2061.65878,-0.00033
2059.73019,-0.00033
2057.80161,-0.00027
2055.87302,-0.00018
2053.94443,-0.00016
2052.01585,-0.00009
2050.08726,-0.00002
2048.15868,0.00002
2046.23009,0.00011
2044.30150,0.00024
2042.37292,0.00041
2040.44433,0.00068
2038.51574,0.00103
2036.58716,0.00126
2034.65857,0.00138
2032.72999,0.00155
2030.80140,0.00175
2028.87281,0.00187
2026.94423,0.00199
2025.01564,0.00207
2023.08705,0.00200
2021.15847,0.00202
2019.22988,0.00212
2017.30129,0.00219
2015.37271,0.00237
2013.44412,0.00261
2011.51554,0.00288
2009.58695,0.00312
2007.65836,0.00321
2005.72978,0.00328
2003.80119,0.00338
2001.87260,0.00348
1999.94402,0.00361
1998.01543,0.00360
1996.08685,0.00354
1994.15826,0.00358
1992.22967,0.00354
1990.30109,0.00338
1988.37250,0.00320
1986.44391,0.00313
1984.51533,0.00308
1982.58674,0.00297
1980.65815,0.00293
1978.72957,0.00288
1976.80098,0.00278
1974.87240,0.00267
1972.94381,0.00252
1971.01522,0.00235
1969.08664,0.00220
1967.15805,0.00202
1965.22946,0.00176
1963.30088,0.00151
1961.37229,0.00132
1959.44371,0.00119
1957.51512,0.00110
1955.58653,0.00097
1953.65795,0.00091
1951.72936,0.00092
1949.80077,0.00089
1947.87219,0.00078
1945.94360,0.00062
1944.01501,0.00049
1942.08643,0.00037
1940.15784,0.00025
1938.22926,0.00022
1936.30067,0.00023
1934.37208,0.00020
1932.44350,0.00016
1930.51491,0.00013
1928.58632,0.00006
1926.65774,-0.00003
1924.72915,0.00000
1922.80056,0.00003
1920.87198,0.00012
1918.94339,0.00032
1917.01481,0.00044
1915.08622,0.00065
1913.15763,0.00112
1911.22905,0.00163
1909.30046,0.00216
1907.37187,0.00268
1905.44329,0.00325
1903.51470,0.00380
1901.58612,0.00421
1899.65753,0.00475
1897.72894,0.00536
1895.80036,0.00593
1893.87177,0.00640
1891.94318,0.00691
1890.01460,0.00739
1888.08601,0.00757
1886.15742,0.00781
1884.22884,0.00811
1882.30025,0.00834
1880.37167,0.00853
1878.44308,0.00864
1876.51449,0.00880
1874.58591,0.00886
1872.65732,0.00889
1870.72873,0.00892
1868.80015,0.00883
1866.87156,0.00852
1864.94298,0.00808
1863.01439,0.00759
1861.08580,0.00699
1859.15722,0.00634
1857.22863,0.00546
1855.30004,0.00454
1853.37146,0.00375
1851.44287,0.00303
1849.51428,0.00234
1847.58570,0.00176
1845.65711,0.00151
1843.72853,0.00094
1841.79994,0.00034
1839.87135,0.00017
1837.94277,0.00000
1836.01418,-0.00017
1834.08559,-0.00030
1832.15701,-0.00011
1830.22842,0.00009
1828.29984,0.00002
1826.37125,0.00031
1824.44266,0.00067
1822.51408,0.00094
1820.58549,0.00127
1818.65690,0.00180
1816.72832,0.00248
1814.79973,0.00316
1812.87114,0.00403
1810.94256,0.00499
1809.01397,0.00601
1807.08539,0.00707
1805.15680,0.00818
1803.22821,0.00954
1801.29963,0.01101
1799.37104,0.01250
1797.44245,0.01407
1795.51387,0.01590
1793.58528,0.01793
1791.65669,0.01977
1789.72811,0.02154
1787.79952,0.02364
1785.87094,0.02580
1783.94235,0.02787
1782.01376,0.03000
1780.08518,0.03210
1778.15659,0.03416
1776.22800,0.03618
1774.29942,0.03839
1772.37083,0.04037
1770.44225,0.04194
1768.51366,0.04376
1766.58507,0.04550
1764.65649,0.04740
1762.72790,0.04949
1760.79931,0.05138
1758.87073,0.05370
1756.94214,0.05627
1755.01355,0.05894
1753.08497,0.06208
1751.15638,0.06540
1749.22780,0.06867
1747.29921,0.07236
1745.37062,0.07653
1743.44204,0.08086
1741.51345,0.08528
1739.58486,0.08952
1737.65628,0.09348
1735.72769,0.09746
1733.79911,0.10059
1731.87052,0.10285
1729.94193,0.10548
1728.01335,0.10805
1726.08476,0.11065
1724.15617,0.11330
1722.22759,0.11589
1720.29900,0.11888
1718.37041,0.12168
1716.44183,0.12388
1714.51324,0.12584
1712.58466,0.12787
1710.65607,0.12977
1708.72748,0.13156
1706.79890,0.13351
1704.87031,0.13507
1702.94172,0.13713
1701.01314,0.13953
1699.08455,0.14126
1697.15596,0.14375
1695.22738,0.14615
1693.29879,0.14808
1691.37021,0.15075
1689.44162,0.15329
1687.51303,0.15602
1685.58445,0.15909
1683.65586,0.16140
1681.72727,0.16373
1679.79869,0.16652
1677.87010,0.16957
1675.94152,0.17243
1674.01293,0.17474
1672.08434,0.17735
1670.15576,0.17997
1668.22717,0.18199
1666.29858,0.18385
1664.37000,0.18577
1662.44141,0.18719
1660.51282,0.18824
1658.58424,0.18921
1656.65565,0.18999
1654.72707,0.19105
1652.79848,0.19041
1650.86989,0.18901
1648.94131,0.18914
1647.01272,0.18886
1645.08413,0.18798
1643.15555,0.18747
1641.22696,0.18731
1639.29838,0.18730
1637.36979,0.18754
1635.44120,0.18725
1633.51262,0.18651
1631.58403,0.18641
1629.65544,0.18584
1627.72686,0.18464
1625.79827,0.18314
1623.86968,0.18133
1621.94110,0.17916
1620.01251,0.17738
1618.08393,0.17616
1616.15534,0.17400
1614.22675,0.17192
1612.29817,0.17022
1610.36958,0.16825
1608.44099,0.16637
1606.51241,0.16475
1604.58382,0.16349
1602.65524,0.16209
1600.72665,0.16061
1598.79806,0.15900
1596.86948,0.15744
1594.94089,0.15586
1593.01230,0.15412
1591.08372,0.15244
1589.15513,0.15059
1587.22654,0.14878
1585.29796,0.14678
1583.36937,0.14475
1581.44079,0.14284
1579.51220,0.14131
1577.58361,0.14020
1575.65503,0.13831
1573.72644,0.13670
1571.79785,0.13594
1569.86927,0.13500
1567.94068,0.13394
1566.01209,0.13354
1564.08351,0.13349
1562.15492,0.13373
1560.22634,0.13421
1558.29775,0.13358
1556.36916,0.13338
1554.44058,0.13379
1552.51199,0.13359
1550.58340,0.13359
1548.65482,0.13351
1546.72623,0.13339
1544.79765,0.13330
1542.86906,0.13315
1540.94047,0.13291
1539.01189,0.13137
1537.08330,0.13012
1535.15471,0.12967
1533.22613,0.12871
1531.29754,0.12734
1529.36895,0.12618
1527.44037,0.12515
1525.51178,0.12405
1523.58320,0.12355
1521.65461,0.12300
1519.72602,0.12214
1517.79744,0.12165
1515.86885,0.12071
1513.94026,0.11913
1512.01168,0.11713
1510.08309,0.11499
1508.15451,0.11292
1506.22592,0.10947
1504.29733,0.10551
1502.36875,0.10251
1500.44016,0.09961
1498.51157,0.09663
1496.58299,0.09334
1494.65440,0.09001
1492.72581,0.08765
1490.79723,0.08572
1488.86864,0.08383
1486.94006,0.08242
1485.01147,0.08163
1483.08288,0.08151
1481.15430,0.08195
1479.22571,0.08319
1477.29712,0.08540
1475.36854,0.08859
1473.43995,0.09314
1471.51137,0.09859
1469.58278,0.10405
1467.65419,0.10876
1465.72561,0.11145
1463.79702,0.11239
1461.86843,0.11285
1459.93985,0.11370
1458.01126,0.11473
1456.08267,0.11479
1454.15409,0.11443
1452.22550,0.11409
1450.29692,0.11367
1448.36833,0.11326
1446.43974,0.11267
1444.51116,0.11223
1442.58257,0.11195
1440.65398,0.11188
1438.72540,0.11204
1436.79681,0.11178
1434.86822,0.11129
1432.93964,0.11129
1431.01105,0.11136
1429.08247,0.11113
1427.15388,0.11111
1425.22529,0.11134
1423.29671,0.11163
1421.36812,0.11217
1419.43953,0.11251
1417.51095,0.11223
1415.58236,0.11213
1413.65378,0.11201
1411.72519,0.11160
1409.79660,0.11119
1407.86802,0.11079
1405.93943,0.11036
1404.01084,0.10960
1402.08226,0.10879
1400.15367,0.10799
1398.22508,0.10692
1396.29650,0.10589
1394.36791,0.10488
1392.43933,0.10407
1390.51074,0.10378
1388.58215,0.10358
1386.65357,0.10298
1384.72498,0.10250
1382.79639,0.10286
1380.86781,0.10367
1378.93922,0.10407
1377.01064,0.10379
1375.08205,0.10295
1373.15346,0.10176
1371.22488,0.10056
1369.29629,0.09939
1367.36770,0.09824
1365.43912,0.09715
1363.51053,0.09581
1361.58194,0.09438
1359.65336,0.09326
1357.72477,0.09230
1355.79619,0.09136
1353.86760,0.09054
1351.93901,0.08988
1350.01043,0.08923
1348.08184,0.08854
1346.15325,0.08785
1344.22467,0.08725
1342.29608,0.08671
1340.36750,0.08620
1338.43891,0.08569
1336.51032,0.08499
1334.58174,0.08439
1332.65315,0.08413
1330.72456,0.08395
1328.79598,0.08366
1326.86739,0.08326
1324.93880,0.08285
1323.01022,0.08246
1321.08163,0.08217
1319.15305,0.08197
1317.22446,0.08178
1315.29587,0.08157
1313.36729,0.08123
1311.43870,0.08095
1309.51011,0.08086
1307.58153,0.08075
1305.65294,0.08052
1303.72435,0.08031
1301.79577,0.08030
1299.86718,0.08038
1297.93860,0.08049
1296.01001,0.08072
1294.08142,0.08105
1292.15284,0.08160
1290.22425,0.08251
1288.29566,0.08367
1286.36708,0.08491
1284.43849,0.08629
1282.50991,0.08787
1280.58132,0.08943
1278.65273,0.09097
1276.72415,0.09268
1274.79556,0.09436
1272.86697,0.09606
1270.93839,0.09800
1269.00980,0.10001
1267.08121,0.10214
1265.15263,0.10452
1263.22404,0.10696
1261.29546,0.10968
1259.36687,0.11307
1257.43828,0.11709
1255.50970,0.12173
1253.58111,0.12684
1251.65252,0.13205
1249.72394,0.13720
1247.79535,0.14237
1245.86677,0.14746
1243.93818,0.15214
1242.00959,0.15646
1240.08101,0.16053
1238.15242,0.16421
1236.22383,0.16756
1234.29525,0.17070
1232.36666,0.17355
1230.43807,0.17614
1228.50949,0.17868
1226.58090,0.18103
1224.65232,0.18312
1222.72373,0.18510
1220.79514,0.18713
1218.86656,0.18922
1216.93797,0.19106
1215.00938,0.19293
1213.08080,0.19495
1211.15221,0.19694
1209.22363,0.19882
1207.29504,0.20048
1205.36645,0.20225
1203.43787,0.20409
1201.50928,0.20580
1199.58069,0.20737
1197.65211,0.20869
1195.72352,0.20980
1193.79493,0.21096
1191.86635,0.21251
1189.93776,0.21396
1188.00918,0.21533
1186.08059,0.21699
1184.15200,0.21868
1182.22342,0.22022
1180.29483,0.22179
1178.36624,0.22403
1176.43766,0.22647
1174.50907,0.22862
1172.58048,0.23100
1170.65190,0.23355
1168.72331,0.23622
1166.79473,0.23881
1164.86614,0.24138
1162.93755,0.24388
1161.00897,0.24556
1159.08038,0.24638
1157.15179,0.24703
1155.22321,0.24798
1153.29462,0.24901
1151.36604,0.25003
1149.43745,0.25127
1147.50886,0.25290
1145.58028,0.25513
1143.65169,0.25774
1141.72310,0.26038
1139.79452,0.26323
1137.86593,0.26655
1135.93734,0.27001
1134.00876,0.27347
1132.08017,0.27685
1130.15159,0.28002
1128.22300,0.28409
1126.29441,0.28930
1124.36583,0.29433
1122.43724,0.29918
1120.50865,0.30425
1118.58007,0.30962
1116.65148,0.31553
1114.72290,0.32131
1112.79431,0.32687
1110.86572,0.33270
1108.93714,0.33842
1107.00855,0.34371
1105.07996,0.34865
1103.15138,0.35301
1101.22279,0.35624
1099.29420,0.35858
1097.36562,0.36031
1095.43703,0.36156
1093.50845,0.36243
1091.57986,0.36240
1089.65127,0.36205
1087.72269,0.36164
1085.79410,0.36059
1083.86551,0.35904
1081.93693,0.35748
1080.00834,0.35633
1078.07976,0.35530
1076.15117,0.35384
1074.22258,0.35189
1072.29400,0.35040
1070.36541,0.34933
1068.43682,0.34790
1066.50824,0.34666
1064.57965,0.34550
1062.65106,0.34412
1060.72248,0.34226
1058.79389,0.34006
1056.86531,0.33783
1054.93672,0.33529
1053.00813,0.33333
1051.07955,0.33161
1049.15096,0.32957
1047.22237,0.32856
1045.29379,0.32853
1043.36520,0.32891
1041.43661,0.32949
1039.50803,0.33018
1037.57944,0.33078
1035.65086,0.33072
1033.72227,0.33028
1031.79368,0.32942
1029.86510,0.32791
1027.93651,0.32569
1026.00792,0.32269
1024.07934,0.31950
1022.15075,0.31635
1020.22217,0.31323
1018.29358,0.30994
1016.36499,0.30654
1014.43641,0.30366
1012.50782,0.30090
1010.57923,0.29779
1008.65065,0.29466
1006.72206,0.29117
1004.79347,0.28715
1002.86489,0.28294
1000.93630,0.27847
999.00772,0.27368
997.07913,0.26857
995.15054,0.26331
993.22196,0.25833
991.29337,0.25329
989.36478,0.24789
987.43620,0.24228
985.50761,0.23616
983.57903,0.22912
981.65044,0.22154
979.72185,0.21409
977.79327,0.20599
975.86468,0.19713
973.93609,0.18847
972.00751,0.17999
970.07892,0.17155
968.15033,0.16342
966.22175,0.15599
964.29316,0.14912
962.36458,0.14272
960.43599,0.13712
958.50740,0.13207
956.57882,0.12763
954.65023,0.12393
952.72164,0.12052
950.79306,0.11731
948.86447,0.11449
946.93589,0.11219
945.00730,0.11047
943.07871,0.10918
941.15013,0.10804
939.22154,0.10687
937.29295,0.10547
935.36437,0.10392
933.43578,0.10261
931.50719,0.10143
929.57861,0.10006
927.65002,0.09870
925.72144,0.09784
923.79285,0.09710
921.86426,0.09617
919.93568,0.09569
918.00709,0.09566
916.07850,0.09539
914.14992,0.09458
912.22133,0.09290
910.29274,0.09014
908.36416,0.08655
906.43557,0.08215
904.50699,0.07672
902.57840,0.07087
900.64981,0.06516
898.72123,0.05967
896.79264,0.05466
894.86405,0.05037
892.93547,0.04678
891.00688,0.04335
889.07830,0.03985
887.14971,0.03669
885.22112,0.03367
883.29254,0.03070
881.36395,0.02815
879.43536,0.02562
877.50678,0.02303
875.57819,0.02031
873.64960,0.01733
871.72102,0.01464
869.79243,0.01202
867.86385,0.00962
865.93526,0.00763
864.00667,0.00525
862.07809,0.00314
860.14950,0.00213
858.22091,0.00143
856.29233,0.00045
854.36374,0.00000
852.43516,0.00031
850.50657,0.00056
848.57798,0.00127
846.64940,0.00258
844.72081,0.00438
842.79222,0.00688
840.86364,0.00949
838.93505,0.01277
837.00646,0.01643
835.07788,0.01966
833.14929,0.02280
831.22071,0.02512
829.29212,0.02663
827.36353,0.02813
825.43495,0.02921
823.50636,0.02974
821.57777,0.03052
819.64919,0.03169
817.72060,0.03280
815.79201,0.03450
813.86343,0.03689
811.93484,0.03958
810.00626,0.04325
808.07767,0.04825
806.14908,0.05465
804.22050,0.06109
802.29191,0.06603
800.36332,0.06916
798.43474,0.06887
796.50615,0.06559
794.57757,0.06142
792.64898,0.05695
790.72039,0.05352
788.79181,0.05108
786.86322,0.04899
784.93463,0.04843
783.00605,0.04937
781.07746,0.05021
779.14887,0.04899
777.22029,0.04501
775.29170,0.03960
773.36312,0.03433
771.43453,0.02998
769.50594,0.02656
767.57736,0.02434
765.64877,0.02359
763.72018,0.02342
761.79160,0.02311
759.86301,0.02292
757.93443,0.02282
756.00584,0.02276
754.07725,0.02284
752.14867,0.02225
750.22008,0.02078
748.29149,0.01952
746.36291,0.01831
744.43432,0.01629
742.50573,0.01391
740.57715,0.01175
738.64856,0.00986
736.71998,0.00807
734.79139,0.00633
732.86280,0.00552
730.93422,0.00561
729.00563,0.00572
727.07704,0.00606
725.14846,0.00617
723.21987,0.00587
721.29129,0.00565
719.36270,0.00490
717.43411,0.00354
715.50553,0.00257
713.57694,0.00231
711.64835,0.00236
709.71977,0.00261
707.79118,0.00309
705.86259,0.00452
703.93401,0.00718
702.00542,0.01018
700.07684,0.01348
698.14825,0.01734
696.21966,0.02071
694.29108,0.02059
692.36249,0.01688
690.43390,0.01318
688.50532,0.01045
686.57673,0.00880
684.64814,0.00810
682.71956,0.00684
680.79097,0.00510
678.86239,0.00364
676.93380,0.00265
675.00521,0.00238
673.07663,0.00242
671.14804,0.00184
669.21945,0.00109
667.29087,0.00051
665.36228,0.00000
663.43370,0.00011
661.50511,0.00021
659.57652,-0.00013
657.64794,-0.00008
655.71935,0.00013
653.79076,0.00016
651.86218,0.00067
649.93359,0.00161
648.00500,0.00207
646.07642,0.00232
644.14783,0.00262
642.21925,0.00265
640.29066,0.00316
638.36207,0.00503
636.43349,0.00574
634.50490,0.00477
632.57631,0.00531
630.64773,0.00547
628.71914,0.00492
626.79056,0.00541
624.86197,0.00579
622.93338,0.00681
621.00480,0.00832
619.07621,0.00950
617.14762,0.00994
615.21904,0.01101
613.29045,0.01278
611.36186,0.01331
609.43328,0.01465
607.50469,0.01558
605.57611,0.01573
603.64752,0.01712
601.71893,0.01926
599.79035,0.02221
597.86176,0.02298
595.93317,0.02306
594.00459,0.02541
592.07600,0.02835
590.14742,0.03125
588.21883,0.03342
586.29024,0.03658
584.36166,0.03986
582.43307,0.04247
580.50448,0.04648
578.57590,0.04936
576.64731,0.05205
574.71872,0.05654
572.79014,0.06077
570.86155,0.06528
568.93297,0.07149
567.00438,0.07798
565.07579,0.08258
563.14721,0.08559
561.21862,0.08888
559.29003,0.09342
557.36145,0.09795
555.43286,0.10246
553.50427,0.10666
551.57569,0.10888
549.64710,0.11171
547.71852,0.11576
545.78993,0.12007
543.86134,0.12492
541.93276,0.12864
540.00417,0.13282
538.07558,0.13744
536.14700,0.14078
534.21841,0.14374
532.28983,0.14648
530.36124,0.14913
528.43265,0.15006
526.50407,0.14889
524.57548,0.14660
522.64689,0.14353
520.71831,0.14194
518.78972,0.14016
516.86113,0.13557
514.93255,0.13153
513.00396,0.12793
511.07538,0.12295
509.14679,0.11863
507.21820,0.11557
505.28962,0.11574
503.36103,0.11813
501.43244,0.11918
499.50386,0.12109
497.57527,0.12619
495.64669,0.13519
493.71810,0.14428
491.78951,0.15004
489.86093,0.15573
487.93234,0.16609
486.00375,0.18056
484.07517,0.19173
482.14658,0.20323
480.21799,0.21609
478.28941,0.22354
476.36082,0.22856
474.43224,0.23270
472.50365,0.23634
470.57506,0.23296
468.64648,0.22341
466.71789,0.21681
464.78930,0.20766
462.86072,0.19459
460.93213,0.18387
459.00355,0.17570
457.07496,0.16755
455.14637,0.15899
453.21779,0.14998
451.28920,0.14061
449.36061,0.13424
447.43203,0.13010
445.50344,0.12332
443.57485,0.11476
441.64627,0.10783
439.71768,0.10171
437.78910,0.09734
435.86051,0.09965
433.93192,0.09804
432.00334,0.08665
430.07475,0.08156
428.14616,0.07790
426.21758,0.07179
424.28899,0.07061
422.36040,0.06616
420.43182,0.05972
418.50323,0.05586
416.57465,0.05488
414.64606,0.05051
412.71747,0.04627
410.78889,0.04633
408.86030,0.03618
406.93171,0.01840
405.00313,0.00126
403.07454,0.00000
401.14596,0.00292
399.21737,0.00000
