3747.24323,0.00000
3745.31464,0.00093
3743.38605,0.00066
3741.45747,0.00097
3739.52888,0.00205
3737.60030,0.00258
3735.67171,0.00281
3733.74312,0.00301
3731.81454,0.00343
3729.88595,0.00401
3727.95736,0.00481
3726.02878,0.00547
3724.10019,0.00629
3722.17161,0.00757
3720.24302,0.00872
3718.31443,0.01029
3716.38585,0.01227
3714.45726,0.01466
3712.52867,0.01703
3710.60009,0.01908
3708.67150,0.02186
3706.74291,0.02491
3704.81433,0.02814
3702.88574,0.03128
3700.95716,0.03371
3699.02857,0.03572
3697.09998,0.03699
3695.17140,0.03773
3693.24281,0.03816
3691.31422,0.03874
3689.38564,0.03947
3687.45705,0.04044
3685.52846,0.04238
3683.59988,0.04489
3681.67129,0.04771
3679.74271,0.05063
3677.81412,0.05402
3675.88553,0.05744
3673.95695,0.06075
3672.02836,0.06501
3670.09977,0.06912
3668.17119,0.07296
3666.24260,0.07727
3664.31402,0.08149
3662.38543,0.08556
3660.45684,0.08953
3658.52826,0.09345
3656.59967,0.09682
3654.67108,0.09976
3652.74250,0.10326
3650.81391,0.10658
3648.88532,0.10923
3646.95674,0.11188
3645.02815,0.11486
3643.09957,0.11790
3641.17098,0.12071
3639.24239,0.12332
3637.31381,0.12570
3635.38522,0.12836
3633.45663,0.13119
3631.52805,0.13404
3629.59946,0.13654
3627.67088,0.13779
3625.74229,0.13927
3623.81370,0.14109
3621.88512,0.14205
3619.95653,0.14198
3618.02794,0.14096
3616.09936,0.13996
3614.17077,0.13905
3612.24218,0.13809
3610.31360,0.13732
3608.38501,0.13642
3606.45643,0.13575
3604.52784,0.13531
3602.59925,0.13481
3600.67067,0.13447
3598.74208,0.13432
3596.81349,0.13419
3594.88491,0.13406
3592.95632,0.13403
3591.02774,0.13416
3589.09915,0.13430
3587.17056,0.13446
3585.24198,0.13482
3583.31339,0.13539
3581.38480,0.13610
3579.45622,0.13682
3577.52763,0.13754
3575.59904,0.13838
3573.67046,0.13935
3571.74187,0.14043
3569.81329,0.14140
3567.88470,0.14230
3565.95611,0.14325
3564.02753,0.14415
3562.09894,0.14525
3560.17035,0.14642
3558.24177,0.14749
3556.31318,0.14868
3554.38459,0.14996
3552.45601,0.15095
3550.52742,0.15198
3548.59884,0.15338
3546.67025,0.15455
3544.74166,0.15551
3542.81308,0.15667
3540.88449,0.15796
3538.95590,0.15909
3537.02732,0.16006
3535.09873,0.16115
3533.17015,0.16230
3531.24156,0.16354
3529.31297,0.16459
3527.38439,0.16553
3525.45580,0.16670
3523.52721,0.16776
3521.59863,0.16881
3519.67004,0.16986
3517.74145,0.17095
3515.81287,0.17198
3513.88428,0.17288
3511.95570,0.17398
3510.02711,0.17507
3508.09852,0.17603
3506.16994,0.17681
3504.24135,0.17780
3502.31276,0.17892
3500.38418,0.17980
3498.45559,0.18090
3496.52701,0.18184
3494.59842,0.18270
3492.66983,0.18382
3490.74125,0.18488
3488.81266,0.18580
3486.88407,0.18655
3484.95549,0.18745
3483.02690,0.18838
3481.09831,0.18924
3479.16973,0.19016
3477.24114,0.19098
3475.31256,0.19186
3473.38397,0.19271
3471.45538,0.19338
3469.52680,0.19424
3467.59821,0.19511
3465.66962,0.19581
3463.74104,0.19667
3461.81245,0.19745
3459.88386,0.19808
3457.95528,0.19879
3456.02669,0.19947
3454.09811,0.20024
3452.16952,0.20108
3450.24093,0.20180
3448.31235,0.20248
3446.38376,0.20317
3444.45517,0.20386
3442.52659,0.20460
3440.59800,0.20534
3438.66942,0.20587
3436.74083,0.20634
3434.81224,0.20686
3432.88366,0.20724
3430.95507,0.20776
3429.02648,0.20864
3427.09790,0.20936
3425.16931,0.20964
3423.24072,0.20995
3421.31214,0.21039
3419.38355,0.21081
3417.45497,0.21122
3415.52638,0.21161
3413.59779,0.21196
3411.66921,0.21241
3409.74062,0.21288
3407.81203,0.21316
3405.88345,0.21345
3403.95486,0.21372
3402.02628,0.21397
3400.09769,0.21443
3398.16910,0.21475
3396.24052,0.21479
3394.31193,0.21496
3392.38334,0.21537
3390.45476,0.21566
3388.52617,0.21574
3386.59758,0.21594
3384.66900,0.21612
3382.74041,0.21613
3380.81183,0.21624
3378.88324,0.21649
3376.95465,0.21670
3375.02607,0.21678
3373.09748,0.21689
3371.16889,0.21713
3369.24031,0.21739
3367.31172,0.21760
3365.38314,0.21777
3363.45455,0.21791
3361.52596,0.21800
3359.59738,0.21803
3357.66879,0.21814
3355.74020,0.21833
3353.81162,0.21848
3351.88303,0.21854
3349.95444,0.21842
3348.02586,0.21829
3346.09727,0.21838
3344.16869,0.21861
3342.24010,0.21870
3340.31151,0.21864
3338.38293,0.21863
3336.45434,0.21860
3334.52575,0.21857
3332.59717,0.21851
3330.66858,0.21842
3328.73999,0.21837
3326.81141,0.21828
3324.88282,0.21808
3322.95424,0.21784
3321.02565,0.21777
3319.09706,0.21774
3317.16848,0.21758
3315.23989,0.21731
3313.31130,0.21702
3311.38272,0.21705
3309.45413,0.21712
3307.52555,0.21693
3305.59696,0.21684
3303.66837,0.21678
3301.73979,0.21651
3299.81120,0.21626
3297.88261,0.21605
3295.95403,0.21564
3294.02544,0.21522
3292.09685,0.21497
3290.16827,0.21469
3288.23968,0.21426
3286.31110,0.21385
3284.38251,0.21340
3282.45392,0.21287
3280.52534,0.21244
3278.59675,0.21192
3276.66816,0.21125
3274.73958,0.21069
3272.81099,0.21016
3270.88241,0.20955
3268.95382,0.20883
3267.02523,0.20801
3265.09665,0.20717
3263.16806,0.20632
3261.23947,0.20545
3259.31089,0.20456
3257.38230,0.20377
3255.45371,0.20304
3253.52513,0.20211
3251.59654,0.20112
3249.66796,0.20029
3247.73937,0.19952
3245.81078,0.19864
3243.88220,0.19774
3241.95361,0.19703
3240.02502,0.19628
3238.09644,0.19543
3236.16785,0.19463
3234.23927,0.19390
3232.31068,0.19330
3230.38209,0.19252
3228.45351,0.19156
3226.52492,0.19091
3224.59633,0.19018
3222.66775,0.18928
3220.73916,0.18868
3218.81057,0.18809
3216.88199,0.18737
3214.95340,0.18663
3213.02482,0.18583
3211.09623,0.18506
3209.16764,0.18425
3207.23906,0.18342
3205.31047,0.18260
3203.38188,0.18180
3201.45330,0.18118
3199.52471,0.18048
3197.59612,0.17966
3195.66754,0.17887
3193.73895,0.17811
3191.81037,0.17728
3189.88178,0.17632
3187.95319,0.17549
3186.02461,0.17475
3184.09602,0.17388
3182.16743,0.17301
3180.23885,0.17211
3178.31026,0.17121
3176.38168,0.17030
3174.45309,0.16940
3172.52450,0.16862
3170.59592,0.16783
3168.66733,0.16703
3166.73874,0.16629
3164.81016,0.16545
3162.88157,0.16465
3160.95298,0.16396
3159.02440,0.16320
3157.09581,0.16241
3155.16723,0.16164
3153.23864,0.16095
3151.31005,0.16031
3149.38147,0.15961
3147.45288,0.15885
3145.52429,0.15801
3143.59571,0.15724
3141.66712,0.15663
3139.73854,0.15603
3137.80995,0.15535
3135.88136,0.15475
3133.95278,0.15417
3132.02419,0.15357
3130.09560,0.15311
3128.16702,0.15257
3126.23843,0.15185
3124.30984,0.15130
3122.38126,0.15085
3120.45267,0.15038
3118.52409,0.15001
3116.59550,0.14956
3114.66691,0.14905
3112.73833,0.14866
3110.80974,0.14830
3108.88115,0.14798
3106.95257,0.14759
3105.02398,0.14699
3103.09540,0.14654
3101.16681,0.14612
3099.23822,0.14557
3097.30964,0.14506
3095.38105,0.14467
3093.45246,0.14439
3091.52388,0.14411
3089.59529,0.14377
3087.66670,0.14338
3085.73812,0.14301
3083.80953,0.14264
3081.88095,0.14217
3079.95236,0.14172
3078.02377,0.14137
3076.09519,0.14091
3074.16660,0.14026
3072.23801,0.13975
3070.30943,0.13931
3068.38084,0.13876
3066.45225,0.13813
3064.52367,0.13743
3062.59508,0.13689
3060.66650,0.13633
3058.73791,0.13577
3056.80932,0.13520
3054.88074,0.13445
3052.95215,0.13382
3051.02356,0.13333
3049.09498,0.13270
3047.16639,0.13192
3045.23781,0.13131
3043.30922,0.13076
3041.38063,0.13010
3039.45205,0.12957
3037.52346,0.12912
3035.59487,0.12871
3033.66629,0.12831
3031.73770,0.12783
3029.80911,0.12733
3027.88053,0.12690
3025.95194,0.12656
3024.02336,0.12624
3022.09477,0.12602
3020.16618,0.12590
3018.23760,0.12574
3016.30901,0.12563
3014.38042,0.12564
3012.45184,0.12566
3010.52325,0.12568
3008.59467,0.12593
3006.66608,0.12627
3004.73749,0.12661
3002.80891,0.12705
3000.88032,0.12750
2998.95173,0.12804
2997.02315,0.12877
2995.09456,0.12963
2993.16597,0.13055
2991.23739,0.13152
2989.30880,0.13262
2987.38022,0.13381
2985.45163,0.13519
2983.52304,0.13692
2981.59446,0.13881
2979.66587,0.14073
2977.73728,0.14278
2975.80870,0.14499
2973.88011,0.14723
2971.95153,0.14961
2970.02294,0.15223
2968.09435,0.15480
2966.16577,0.15731
2964.23718,0.15989
2962.30859,0.16246
2960.38001,0.16496
2958.45142,0.16725
2956.52283,0.16933
2954.59425,0.17125
2952.66566,0.17306
2950.73708,0.17509
2948.80849,0.17747
2946.87990,0.18041
2944.95132,0.18405
2943.02273,0.18814
2941.09414,0.19260
2939.16556,0.19761
2937.23697,0.20300
2935.30838,0.20848
2933.37980,0.21396
2931.45121,0.21920
2929.52263,0.22397
2927.59404,0.22822
2925.66545,0.23176
2923.73687,0.23429
2921.80828,0.23539
2919.87969,0.23466
2917.95111,0.23093
2916.02252,0.22296
2914.09394,0.21211
2912.16535,0.20152
2910.23676,0.19298
2908.30818,0.18638
2906.37959,0.18122
2904.45100,0.17696
2902.52242,0.17322
2900.59383,0.16992
2898.66524,0.16686
2896.73666,0.16390
2894.80807,0.16094
2892.87949,0.15805
2890.95090,0.15535
2889.02231,0.15281
2887.09373,0.15046
2885.16514,0.14835
2883.23655,0.14665
2881.30797,0.14531
2879.37938,0.14420
2877.45080,0.14360
2875.52221,0.14356
2873.59362,0.14374
2871.66504,0.14405
2869.73645,0.14449
2867.80786,0.14523
2865.87928,0.14658
2863.95069,0.14903
2862.02210,0.15292
2860.09352,0.15814
2858.16493,0.16458
2856.23635,0.17149
2854.30776,0.17707
2852.37917,0.17971
2850.45059,0.17755
2848.52200,0.16918
2846.59341,0.15682
2844.66483,0.14452
2842.73624,0.13405
2840.80766,0.12546
2838.87907,0.11865
2836.95048,0.11319
2835.02190,0.10876
2833.09331,0.10513
2831.16472,0.10207
2829.23614,0.09947
2827.30755,0.09726
2825.37896,0.09533
2823.45038,0.09352
2821.52179,0.09177
2819.59321,0.09023
2817.66462,0.08886
2815.73603,0.08758
2813.80745,0.08644
2811.87886,0.08535
2809.95027,0.08426
2808.02169,0.08326
2806.09310,0.08234
2804.16451,0.08153
2802.23593,0.08068
2800.30734,0.07979
2798.37876,0.07908
2796.45017,0.07833
2794.52158,0.07753
2792.59300,0.07678
2790.66441,0.07612
2788.73582,0.07556
2786.80724,0.07486
2784.87865,0.07417
2782.95007,0.07355
2781.02148,0.07297
2779.09289,0.07245
2777.16431,0.07191
2775.23572,0.07142
2773.30713,0.07081
2771.37855,0.07029
2769.44996,0.06998
2767.52137,0.06955
2765.59279,0.06905
2763.66420,0.06861
2761.73562,0.06822
2759.80703,0.06781
2757.87844,0.06743
2755.94986,0.06715
2754.02127,0.06675
2752.09268,0.06639
2750.16410,0.06606
2748.23551,0.06568
2746.30693,0.06538
2744.37834,0.06511
2742.44975,0.06476
2740.52117,0.06442
2738.59258,0.06406
2736.66399,0.06370
2734.73541,0.06334
2732.80682,0.06292
2730.87823,0.06262
2728.94965,0.06235
2727.02106,0.06191
2725.09248,0.06140
2723.16389,0.06095
2721.23530,0.06058
2719.30672,0.06022
2717.37813,0.05983
2715.44954,0.05944
2713.52096,0.05898
2711.59237,0.05851
2709.66379,0.05810
2707.73520,0.05773
2705.80661,0.05738
2703.87803,0.05701
2701.94944,0.05664
2700.02085,0.05634
2698.09227,0.05596
2696.16368,0.05549
2694.23509,0.05513
2692.30651,0.05491
2690.37792,0.05476
2688.44934,0.05450
2686.52075,0.05412
2684.59216,0.05385
2682.66358,0.05358
2680.73499,0.05329
2678.80640,0.05304
2676.87782,0.05269
2674.94923,0.05230
2673.02064,0.05195
2671.09206,0.05157
2669.16347,0.05117
2667.23489,0.05087
2665.30630,0.05062
2663.37771,0.05027
2661.44913,0.04994
2659.52054,0.04966
2657.59195,0.04939
2655.66337,0.04910
2653.73478,0.04874
2651.80620,0.04836
2649.87761,0.04810
2647.94902,0.04790
2646.02044,0.04758
2644.09185,0.04723
2642.16326,0.04698
2640.23468,0.04675
2638.30609,0.04645
2636.37750,0.04615
2634.44892,0.04589
2632.52033,0.04562
2630.59175,0.04536
2628.66316,0.04512
2626.73457,0.04484
2624.80599,0.04454
2622.87740,0.04416
2620.94881,0.04382
2619.02023,0.04358
2617.09164,0.04328
2615.16306,0.04290
2613.23447,0.04262
2611.30588,0.04236
2609.37730,0.04198
2607.44871,0.04167
2605.52012,0.04143
2603.59154,0.04116
2601.66295,0.04085
2599.73436,0.04052
2597.80578,0.04024
2595.87719,0.03994
2593.94861,0.03963
2592.02002,0.03932
2590.09143,0.03906
2588.16285,0.03879
2586.23426,0.03852
2584.30567,0.03826
2582.37709,0.03788
2580.44850,0.03752
2578.51991,0.03722
2576.59133,0.03687
2574.66274,0.03660
2572.73416,0.03643
2570.80557,0.03628
2568.87698,0.03606
2566.94840,0.03571
2565.01981,0.03547
2563.09122,0.03530
2561.16264,0.03511
2559.23405,0.03486
2557.30547,0.03455
2555.37688,0.03431
2553.44829,0.03413
2551.51971,0.03387
2549.59112,0.03359
2547.66253,0.03340
2545.73395,0.03320
2543.80536,0.03301
2541.87677,0.03286
2539.94819,0.03262
2538.01960,0.03238
2536.09102,0.03211
2534.16243,0.03182
2532.23384,0.03162
2530.30526,0.03146
2528.37667,0.03130
2526.44808,0.03108
2524.51950,0.03086
2522.59091,0.03061
2520.66233,0.03032
2518.73374,0.03007
2516.80515,0.02981
2514.87657,0.02954
2512.94798,0.02925
2511.01939,0.02895
2509.09081,0.02869
2507.16222,0.02848
2505.23363,0.02828
2503.30505,0.02807
2501.37646,0.02780
2499.44788,0.02744
2497.51929,0.02715
2495.59070,0.02695
2493.66212,0.02672
2491.73353,0.02649
2489.80494,0.02617
2487.87636,0.02583
2485.94777,0.02558
2484.01919,0.02530
2482.09060,0.02506
2480.16201,0.02482
2478.23343,0.02453
2476.30484,0.02424
2474.37625,0.02392
2472.44767,0.02360
2470.51908,0.02331
2468.59049,0.02309
2466.66191,0.02287
2464.73332,0.02256
2462.80474,0.02227
2460.87615,0.02197
2458.94756,0.02164
2457.01898,0.02134
2455.09039,0.02110
2453.16180,0.02088
2451.23322,0.02068
2449.30463,0.02040
2447.37604,0.02005
2445.44746,0.01976
2443.51887,0.01955
2441.59029,0.01937
2439.66170,0.01914
2437.73311,0.01887
2435.80453,0.01856
2433.87594,0.01818
2431.94735,0.01789
2430.01877,0.01764
2428.09018,0.01739
2426.16160,0.01712
2424.23301,0.01685
2422.30442,0.01660
2420.37584,0.01632
2418.44725,0.01605
2416.51866,0.01583
2414.59008,0.01558
2412.66149,0.01534
2410.73290,0.01513
2408.80432,0.01489
2406.87573,0.01458
2404.94715,0.01430
2403.01856,0.01409
2401.08997,0.01388
2399.16139,0.01368
2397.23280,0.01351
2395.30421,0.01328
2393.37563,0.01297
2391.44704,0.01268
2389.51846,0.01241
2387.58987,0.01215
2385.66128,0.01194
2383.73270,0.01175
2381.80411,0.01153
2379.87552,0.01120
2377.94694,0.01085
2376.01835,0.01057
2374.08976,0.01021
2372.16118,0.00972
2370.23259,0.00928
2368.30401,0.00893
2366.37542,0.00852
2364.44683,0.00815
2362.51825,0.00791
2360.58966,0.00766
2358.66107,0.00743
2356.73249,0.00735
2354.80390,0.00741
2352.87532,0.00761
2350.94673,0.00787
2349.01814,0.00804
2347.08956,0.00796
2345.16097,0.00762
2343.23238,0.00723
2341.30380,0.00703
2339.37521,0.00687
2337.44662,0.00660
2335.51804,0.00630
2333.58945,0.00615
2331.66087,0.00608
2329.73228,0.00598
2327.80369,0.00594
2325.87511,0.00593
2323.94652,0.00588
2322.01793,0.00585
2320.08935,0.00580
2318.16076,0.00579
2316.23217,0.00580
2314.30359,0.00578
2312.37500,0.00570
2310.44642,0.00559
2308.51783,0.00551
2306.58924,0.00544
2304.66066,0.00539
2302.73207,0.00536
2300.80348,0.00531
2298.87490,0.00520
2296.94631,0.00503
2295.01773,0.00494
2293.08914,0.00490
2291.16055,0.00482
2289.23197,0.00468
2287.30338,0.00455
2285.37479,0.00447
2283.44621,0.00437
2281.51762,0.00433
2279.58903,0.00427
2277.66045,0.00413
2275.73186,0.00401
2273.80328,0.00390
2271.87469,0.00381
2269.94610,0.00365
2268.01752,0.00356
2266.08893,0.00355
2264.16034,0.00341
2262.23176,0.00333
2260.30317,0.00326
2258.37459,0.00317
2256.44600,0.00318
2254.51741,0.00308
2252.58883,0.00291
2250.66024,0.00279
2248.73165,0.00273
2246.80307,0.00271
2244.87448,0.00269
2242.94589,0.00260
2241.01731,0.00249
2239.08872,0.00242
2237.16014,0.00231
2235.23155,0.00217
2233.30296,0.00209
2231.37438,0.00207
2229.44579,0.00194
2227.51720,0.00180
2225.58862,0.00177
2223.66003,0.00171
2221.73145,0.00160
2219.80286,0.00147
2217.87427,0.00138
2215.94569,0.00128
2214.01710,0.00116
2212.08851,0.00110
2210.15993,0.00101
2208.23134,0.00092
2206.30275,0.00085
2204.37417,0.00086
2202.44558,0.00092
2200.51700,0.00083
2198.58841,0.00064
2196.65982,0.00056
2194.73124,0.00059
2192.80265,0.00057
2190.87406,0.00052
2188.94548,0.00051
2187.01689,0.00049
2185.08830,0.00045
2183.15972,0.00042
2181.23113,0.00036
2179.30255,0.00031
2177.37396,0.00033
2175.44537,0.00032
2173.51679,0.00023
2171.58820,0.00009
2169.65961,0.00000
2167.73103,0.00011
2165.80244,0.00024
2163.87386,0.00027
2161.94527,0.00026
2160.01668,0.00016
2158.08810,0.00016
2156.15951,0.00020
2154.23092,0.00023
2152.30234,0.00027
2150.37375,0.00028
2148.44516,0.00025
2146.51658,0.00015
2144.58799,0.00015
2142.65941,0.00023
2140.73082,0.00024
2138.80223,0.00018
2136.87365,0.00013
2134.94506,0.00016
2133.01647,0.00009
2131.08789,0.00000
2129.15930,0.00004
2127.23072,0.00007
2125.30213,0.00006
2123.37354,0.00010
2121.44496,0.00006
2119.51637,-0.00010
2117.58778,-0.00017
2115.65920,-0.00020
2113.73061,-0.00024
2111.80202,-0.00024
2109.87344,-0.00023
2107.94485,-0.00015
2106.01627,-0.00013
2104.08768,-0.00021
2102.15909,-0.00026
2100.23051,-0.00025
2098.30192,-0.00015
2096.37333,-0.00009
2094.44475,-0.00012
2092.51616,-0.00012
2090.58758,-0.00014
2088.65899,-0.00018
2086.73040,-0.00013
2084.80182,-0.00011
2082.87323,-0.00012
2080.94464,0.00000
2079.01606,0.00003
2077.08747,-0.00003
2075.15888,-0.00002
2073.23030,-0.00004
2071.30171,-0.00003
2069.37313,0.00001
2067.44454,0.00004
2065.51595,0.00012
2063.58737,0.00019
2061.65878,0.00018
2059.73019,0.00022
2057.80161,0.00029
2055.87302,0.00031
2053.94443,0.00034
2052.01585,0.00040
2050.08726,0.00049
2048.15868,0.00059
2046.23009,0.00068
2044.30150,0.00084
2042.37292,0.00103
2040.44433,0.00118
2038.51574,0.00136
2036.58716,0.00151
2034.65857,0.00163
2032.72999,0.00181
2030.80140,0.00197
2028.87281,0.00204
2026.94423,0.00211
2025.01564,0.00218
2023.08705,0.00225
2021.15847,0.00234
2019.22988,0.00238
2017.30129,0.00240
2015.37271,0.00253
2013.44412,0.00269
2011.51554,0.00279
2009.58695,0.00290
2007.65836,0.00301
2005.72978,0.00313
2003.80119,0.00328
2001.87260,0.00334
1999.94402,0.00333
1998.01543,0.00332
1996.08685,0.00333
1994.15826,0.00334
1992.22967,0.00325
1990.30109,0.00313
1988.37250,0.00311
1986.44391,0.00309
1984.51533,0.00299
1982.58674,0.00289
1980.65815,0.00275
1978.72957,0.00265
1976.80098,0.00255
1974.87240,0.00246
1972.94381,0.00242
1971.01522,0.00229
1969.08664,0.00217
1967.15805,0.00204
1965.22946,0.00186
1963.30088,0.00172
1961.37229,0.00157
1959.44371,0.00146
1957.51512,0.00132
1955.58653,0.00117
1953.65795,0.00109
1951.72936,0.00102
1949.80077,0.00095
1947.87219,0.00081
1945.94360,0.00064
1944.01501,0.00052
1942.08643,0.00038
1940.15784,0.00025
1938.22926,0.00018
1936.30067,0.00021
1934.37208,0.00026
1932.44350,0.00021
1930.51491,0.00015
1928.58632,0.00008
1926.65774,-0.00002
1924.72915,0.00000
1922.80056,-0.00004
1920.87198,-0.00005
1918.94339,0.00003
1917.01481,0.00005
1915.08622,0.00019
1913.15763,0.00045
1911.22905,0.00073
1909.30046,0.00114
1907.37187,0.00157
1905.44329,0.00196
1903.51470,0.00239
1901.58612,0.00285
1899.65753,0.00329
1897.72894,0.00366
1895.80036,0.00401
1893.87177,0.00438
1891.94318,0.00477
1890.01460,0.00504
1888.08601,0.00519
1886.15742,0.00542
1884.22884,0.00568
1882.30025,0.00588
1880.37167,0.00598
1878.44308,0.00608
1876.51449,0.00620
1874.58591,0.00622
1872.65732,0.00625
1870.72873,0.00626
1868.80015,0.00608
1866.87156,0.00584
1864.94298,0.00566
1863.01439,0.00529
1861.08580,0.00475
1859.15722,0.00420
1857.22863,0.00363
1855.30004,0.00305
1853.37146,0.00240
1851.44287,0.00187
1849.51428,0.00140
1847.58570,0.00090
1845.65711,0.00056
1843.72853,0.00019
1841.79994,0.00000
1839.87135,-0.00012
1837.94277,-0.00029
1836.01418,-0.00041
1834.08559,-0.00051
1832.15701,-0.00046
1830.22842,-0.00040
1828.29984,-0.00031
1826.37125,-0.00002
1824.44266,0.00025
1822.51408,0.00061
1820.58549,0.00106
1818.65690,0.00155
1816.72832,0.00211
1814.79973,0.00276
1812.87114,0.00350
1810.94256,0.00435
1809.01397,0.00531
1807.08539,0.00637
1805.15680,0.00755
1803.22821,0.00882
1801.29963,0.01023
1799.37104,0.01175
1797.44245,0.01335
1795.51387,0.01508
1793.58528,0.01690
1791.65669,0.01881
1789.72811,0.02087
1787.79952,0.02313
1785.87094,0.02538
1783.94235,0.02762
1782.01376,0.02982
1780.08518,0.03197
1778.15659,0.03415
1776.22800,0.03628
1774.29942,0.03844
1772.37083,0.04032
1770.44225,0.04211
1768.51366,0.04414
1766.58507,0.04605
1764.65649,0.04815
1762.72790,0.05033
1760.79931,0.05241
1758.87073,0.05478
1756.94214,0.05730
1755.01355,0.06009
1753.08497,0.06325
1751.15638,0.06655
1749.22780,0.07018
1747.29921,0.07434
1745.37062,0.07880
1743.44204,0.08351
1741.51345,0.08833
1739.58486,0.09293
1737.65628,0.09729
1735.72769,0.10124
1733.79911,0.10435
1731.87052,0.10722
1729.94193,0.11031
1728.01335,0.11313
1726.08476,0.11594
1724.15617,0.11879
1722.22759,0.12172
1720.29900,0.12481
1718.37041,0.12758
1716.44183,0.13015
1714.51324,0.13273
1712.58466,0.13526
1710.65607,0.13742
1708.72748,0.13915
1706.79890,0.14080
1704.87031,0.14226
1702.94172,0.14406
1701.01314,0.14599
1699.08455,0.14783
1697.15596,0.15020
1695.22738,0.15239
1693.29879,0.15474
1691.37021,0.15745
1689.44162,0.15992
1687.51303,0.16262
1685.58445,0.16518
1683.65586,0.16740
1681.72727,0.17017
1679.79869,0.17298
1677.87010,0.17556
1675.94152,0.17789
1674.01293,0.18000
1672.08434,0.18246
1670.15576,0.18471
1668.22717,0.18637
1666.29858,0.18803
1664.37000,0.18965
1662.44141,0.19085
1660.51282,0.19183
1658.58424,0.19270
1656.65565,0.19334
1654.72707,0.19379
1652.79848,0.19320
1650.86989,0.19288
1648.94131,0.19340
1647.01272,0.19328
1645.08413,0.19305
1643.15555,0.19323
1641.22696,0.19336
1639.29838,0.19347
1637.36979,0.19366
1635.44120,0.19350
1633.51262,0.19315
1631.58403,0.19305
1629.65544,0.19252
1627.72686,0.19145
1625.79827,0.18989
1623.86968,0.18797
1621.94110,0.18594
1620.01251,0.18422
1618.08393,0.18267
1616.15534,0.18048
1614.22675,0.17862
1612.29817,0.17710
1610.36958,0.17539
1608.44099,0.17378
1606.51241,0.17243
1604.58382,0.17118
1602.65524,0.16968
1600.72665,0.16823
1598.79806,0.16675
1596.86948,0.16520
1594.94089,0.16362
1593.01230,0.16200
1591.08372,0.16042
1589.15513,0.15862
1587.22654,0.15676
1585.29796,0.15475
1583.36937,0.15282
1581.44079,0.15095
1579.51220,0.14914
1577.58361,0.14740
1575.65503,0.14518
1573.72644,0.14360
1571.79785,0.14272
1569.86927,0.14158
1567.94068,0.14059
1566.01209,0.14001
1564.08351,0.13958
1562.15492,0.13950
1560.22634,0.13929
1558.29775,0.13850
1556.36916,0.13853
1554.44058,0.13876
1552.51199,0.13866
1550.58340,0.13871
1548.65482,0.13843
1546.72623,0.13823
1544.79765,0.13787
1542.86906,0.13721
1540.94047,0.13648
1539.01189,0.13520
1537.08330,0.13436
1535.15471,0.13371
1533.22613,0.13253
1531.29754,0.13138
1529.36895,0.13041
1527.44037,0.12928
1525.51178,0.12812
1523.58320,0.12745
1521.65461,0.12679
1519.72602,0.12645
1517.79744,0.12658
1515.86885,0.12598
1513.94026,0.12456
1512.01168,0.12267
1510.08309,0.12059
1508.15451,0.11837
1506.22592,0.11521
1504.29733,0.11174
1502.36875,0.10832
1500.44016,0.10438
1498.51157,0.10045
1496.58299,0.09678
1494.65440,0.09339
1492.72581,0.09070
1490.79723,0.08836
1488.86864,0.08630
1486.94006,0.08492
1485.01147,0.08421
1483.08288,0.08411
1481.15430,0.08472
1479.22571,0.08614
1477.29712,0.08846
1475.36854,0.09181
1473.43995,0.09655
1471.51137,0.10257
1469.58278,0.10887
1467.65419,0.11407
1465.72561,0.11701
1463.79702,0.11817
1461.86843,0.11888
1459.93985,0.11968
1458.01126,0.12046
1456.08267,0.12086
1454.15409,0.12107
1452.22550,0.12097
1450.29692,0.12060
1448.36833,0.12015
1446.43974,0.11958
1444.51116,0.11919
1442.58257,0.11880
1440.65398,0.11854
1438.72540,0.11852
1436.79681,0.11842
1434.86822,0.11845
1432.93964,0.11865
1431.01105,0.11876
1429.08247,0.11880
1427.15388,0.11902
1425.22529,0.11931
1423.29671,0.11973
1421.36812,0.12042
1419.43953,0.12084
1417.51095,0.12106
1415.58236,0.12153
1413.65378,0.12182
1411.72519,0.12184
1409.79660,0.12166
1407.86802,0.12126
1405.93943,0.12063
1404.01084,0.11962
1402.08226,0.11851
1400.15367,0.11735
1398.22508,0.11600
1396.29650,0.11478
1394.36791,0.11384
1392.43933,0.11315
1390.51074,0.11261
1388.58215,0.11220
1386.65357,0.11172
1384.72498,0.11140
1382.79639,0.11179
1380.86781,0.11257
1378.93922,0.11294
1377.01064,0.11269
1375.08205,0.11195
1373.15346,0.11080
1371.22488,0.10958
1369.29629,0.10845
1367.36770,0.10723
1365.43912,0.10582
1363.51053,0.10417
1361.58194,0.10256
1359.65336,0.10145
1357.72477,0.10064
1355.79619,0.09971
1353.86760,0.09885
1351.93901,0.09819
1350.01043,0.09760
1348.08184,0.09707
1346.15325,0.09660
1344.22467,0.09622
1342.29608,0.09579
1340.36750,0.09531
1338.43891,0.09480
1336.51032,0.09420
1334.58174,0.09372
1332.65315,0.09316
1330.72456,0.09244
1328.79598,0.09185
1326.86739,0.09147
1324.93880,0.09115
1323.01022,0.09070
1321.08163,0.09025
1319.15305,0.08990
1317.22446,0.08963
1315.29587,0.08940
1313.36729,0.08917
1311.43870,0.08889
1309.51011,0.08864
1307.58153,0.08851
1305.65294,0.08829
1303.72435,0.08809
1301.79577,0.08812
1299.86718,0.08827
1297.93860,0.08845
1296.01001,0.08869
1294.08142,0.08915
1292.15284,0.08988
1290.22425,0.09072
1288.29566,0.09182
1286.36708,0.09322
1284.43849,0.09473
1282.50991,0.09616
1280.58132,0.09760
1278.65273,0.09924
1276.72415,0.10102
1274.79556,0.10281
1272.86697,0.10465
1270.93839,0.10654
1269.00980,0.10852
1267.08121,0.11055
1265.15263,0.11256
1263.22404,0.11477
1261.29546,0.11736
1259.36687,0.12042
1257.43828,0.12408
1255.50970,0.12829
1253.58111,0.13287
1251.65252,0.13757
1249.72394,0.14222
1247.79535,0.14695
1245.86677,0.15173
1243.93818,0.15627
1242.00959,0.16054
1240.08101,0.16451
1238.15242,0.16810
1236.22383,0.17131
1234.29525,0.17411
1232.36666,0.17681
1230.43807,0.17942
1228.50949,0.18164
1226.58090,0.18373
1224.65232,0.18577
1222.72373,0.18771
1220.79514,0.18954
1218.86656,0.19138
1216.93797,0.19319
1215.00938,0.19491
1213.08080,0.19684
1211.15221,0.19871
1209.22363,0.20040
1207.29504,0.20210
1205.36645,0.20379
1203.43787,0.20547
1201.50928,0.20687
1199.58069,0.20800
1197.65211,0.20906
1195.72352,0.21032
1193.79493,0.21179
1191.86635,0.21315
1189.93776,0.21455
1188.00918,0.21614
1186.08059,0.21779
1184.15200,0.21939
1182.22342,0.22113
1180.29483,0.22333
1178.36624,0.22589
1176.43766,0.22860
1174.50907,0.23131
1172.58048,0.23404
1170.65190,0.23665
1168.72331,0.23915
1166.79473,0.24190
1164.86614,0.24461
1162.93755,0.24705
1161.00897,0.24903
1159.08038,0.25023
1157.15179,0.25118
1155.22321,0.25236
1153.29462,0.25385
1151.36604,0.25566
1149.43745,0.25765
1147.50886,0.25971
1145.58028,0.26180
1143.65169,0.26436
1141.72310,0.26745
1139.79452,0.27069
1137.86593,0.27430
1135.93734,0.27806
1134.00876,0.28190
1132.08017,0.28612
1130.15159,0.29013
1128.22300,0.29455
1126.29441,0.30003
1124.36583,0.30548
1122.43724,0.31056
1120.50865,0.31569
1118.58007,0.32167
1116.65148,0.32828
1114.72290,0.33450
1112.79431,0.34079
1110.86572,0.34726
1108.93714,0.35345
1107.00855,0.35896
1105.07996,0.36353
1103.15138,0.36716
1101.22279,0.36983
1099.29420,0.37197
1097.36562,0.37306
1095.43703,0.37324
1093.50845,0.37311
1091.57986,0.37258
1089.65127,0.37235
1087.72269,0.37179
1085.79410,0.37014
1083.86551,0.36819
1081.93693,0.36645
1080.00834,0.36488
1078.07976,0.36309
1076.15117,0.36076
1074.22258,0.35808
1072.29400,0.35614
1070.36541,0.35477
1068.43682,0.35309
1066.50824,0.35162
1064.57965,0.35045
1062.65106,0.34885
1060.72248,0.34697
1058.79389,0.34543
1056.86531,0.34380
1054.93672,0.34154
1053.00813,0.33908
1051.07955,0.33734
1049.15096,0.33679
1047.22237,0.33665
1045.29379,0.33673
1043.36520,0.33748
1041.43661,0.33880
1039.50803,0.34038
1037.57944,0.34155
1035.65086,0.34201
1033.72227,0.34192
1031.79368,0.34112
1029.86510,0.33935
1027.93651,0.33706
1026.00792,0.33467
1024.07934,0.33169
1022.15075,0.32811
1020.22217,0.32469
1018.29358,0.32155
1016.36499,0.31830
1014.43641,0.31463
1012.50782,0.31061
1010.57923,0.30665
1008.65065,0.30262
1006.72206,0.29844
1004.79347,0.29423
1002.86489,0.28967
1000.93630,0.28477
999.00772,0.27960
997.07913,0.27413
995.15054,0.26857
993.22196,0.26285
991.29337,0.25677
989.36478,0.25048
987.43620,0.24434
985.50761,0.23801
983.57903,0.23079
981.65044,0.22288
979.72185,0.21477
977.79327,0.20639
975.86468,0.19761
973.93609,0.18848
972.00751,0.17933
970.07892,0.17068
968.15033,0.16234
966.22175,0.15429
964.29316,0.14707
962.36458,0.14047
960.43599,0.13410
958.50740,0.12863
956.57882,0.12419
954.65023,0.12013
952.72164,0.11655
950.79306,0.11356
948.86447,0.11105
946.93589,0.10890
945.00730,0.10681
943.07871,0.10502
941.15013,0.10347
939.22154,0.10205
937.29295,0.10085
935.36437,0.09963
933.43578,0.09834
931.50719,0.09713
929.57861,0.09591
927.65002,0.09473
925.72144,0.09395
923.79285,0.09332
921.86426,0.09268
919.93568,0.09240
918.00709,0.09201
916.07850,0.09137
914.14992,0.09048
912.22133,0.08873
910.29274,0.08612
908.36416,0.08259
906.43557,0.07800
904.50699,0.07275
902.57840,0.06731
900.64981,0.06183
898.72123,0.05668
896.79264,0.05236
894.86405,0.04839
892.93547,0.04451
891.00688,0.04095
889.07830,0.03764
887.14971,0.03462
885.22112,0.03192
883.29254,0.02928
881.36395,0.02653
879.43536,0.02416
877.50678,0.02196
875.57819,0.01941
873.64960,0.01708
871.72102,0.01471
869.79243,0.01179
867.86385,0.00885
865.93526,0.00641
864.00667,0.00479
862.07809,0.00345
860.14950,0.00224
858.22091,0.00138
856.29233,0.00046
854.36374,0.00000
852.43516,0.00024
850.50657,0.00078
848.57798,0.00163
846.64940,0.00289
844.72081,0.00475
842.79222,0.00693
840.86364,0.00923
838.93505,0.01200
837.00646,0.01521
835.07788,0.01850
833.14929,0.02138
831.22071,0.02341
829.29212,0.02464
827.36353,0.02566
825.43495,0.02681
823.50636,0.02780
821.57777,0.02851
819.64919,0.02934
817.72060,0.03036
815.79201,0.03178
813.86343,0.03417
811.93484,0.03730
810.00626,0.04122
808.07767,0.04643
806.14908,0.05246
804.22050,0.05846
802.29191,0.06323
800.36332,0.06566
798.43474,0.06495
796.50615,0.06151
794.57757,0.05712
792.64898,0.05299
790.72039,0.04940
788.79181,0.04650
786.86322,0.04501
784.93463,0.04487
783.00605,0.04531
781.07746,0.04576
779.14887,0.04471
777.22029,0.04118
775.29170,0.03591
773.36312,0.03046
771.43453,0.02573
769.50594,0.02216
767.57736,0.02031
765.64877,0.01940
763.72018,0.01886
761.79160,0.01882
759.86301,0.01878
757.93443,0.01861
756.00584,0.01859
754.07725,0.01868
752.14867,0.01857
750.22008,0.01780
748.29149,0.01648
746.36291,0.01544
744.43432,0.01417
742.50573,0.01216
740.57715,0.01022
738.64856,0.00832
736.71998,0.00680
734.79139,0.00635
732.86280,0.00643
730.93422,0.00615
729.00563,0.00598
727.07704,0.00665
725.14846,0.00692
723.21987,0.00701
721.29129,0.00684
719.36270,0.00502
717.43411,0.00251
715.50553,0.00051
713.57694,0.00000
711.64835,0.00034
709.71977,0.00058
707.79118,0.00169
705.86259,0.00333
703.93401,0.00544
702.00542,0.00834
700.07684,0.01179
698.14825,0.01619
696.21966,0.01952
694.29108,0.01850
692.36249,0.01452
690.43390,0.01165
688.50532,0.01013
686.57673,0.00809
684.64814,0.00555
682.71956,0.00390
680.79097,0.00362
678.86239,0.00377
676.93380,0.00353
675.00521,0.00258
673.07663,0.00180
671.14804,0.00172
669.21945,0.00113
667.29087,0.00000
665.36228,-0.00017
663.43370,0.00027
661.50511,0.00011
659.57652,-0.00026
657.64794,-0.00061
655.71935,-0.00032
653.79076,0.00102
651.86218,0.00194
649.93359,0.00272
648.00500,0.00352
646.07642,0.00354
644.14783,0.00315
642.21925,0.00259
640.29066,0.00281
638.36207,0.00369
636.43349,0.00424
634.50490,0.00528
632.57631,0.00611
630.64773,0.00608
628.71914,0.00719
626.79056,0.00876
624.86197,0.00924
622.93338,0.00972
621.00480,0.01009
619.07621,0.01037
617.14762,0.01082
615.21904,0.01179
613.29045,0.01370
611.36186,0.01477
609.43328,0.01468
607.50469,0.01505
605.57611,0.01651
603.64752,0.01805
601.71893,0.01934
599.79035,0.02171
597.86176,0.02392
595.93317,0.02547
594.00459,0.02790
592.07600,0.03010
590.14742,0.03150
588.21883,0.03414
586.29024,0.03840
584.36166,0.04266
582.43307,0.04654
580.50448,0.05033
578.57590,0.05390
576.64731,0.05726
574.71872,0.06043
572.79014,0.06421
570.86155,0.06957
568.93297,0.07482
567.00438,0.07884
565.07579,0.08421
563.14721,0.08915
561.21862,0.09202
559.29003,0.09701
557.36145,0.10213
555.43286,0.10470
553.50427,0.10795
551.57569,0.11251
549.64710,0.11676
547.71852,0.12023
545.78993,0.12436
543.86134,0.12917
541.93276,0.13361
540.00417,0.13806
538.07558,0.14279
536.14700,0.14854
534.21841,0.15185
532.28983,0.15230
530.36124,0.15514
528.43265,0.15682
526.50407,0.15457
524.57548,0.15138
522.64689,0.14818
520.71831,0.14584
518.78972,0.14300
516.86113,0.13854
514.93255,0.13302
513.00396,0.12659
511.07538,0.12204
509.14679,0.12074
507.21820,0.11976
505.28962,0.11690
503.36103,0.11605
501.43244,0.12031
499.50386,0.12493
497.57527,0.12867
495.64669,0.13519
493.71810,0.14464
491.78951,0.15418
489.86093,0.16408
487.93234,0.17520
486.00375,0.18360
484.07517,0.19467
482.14658,0.20921
480.21799,0.22000
478.28941,0.23187
476.36082,0.23848
474.43224,0.23895
472.50365,0.24103
470.57506,0.23888
468.64648,0.23241
466.71789,0.22307
464.78930,0.21393
462.86072,0.20402
460.93213,0.19255
459.00355,0.17980
457.07496,0.16444
455.14637,0.15170
453.21779,0.14087
451.28920,0.13403
449.36061,0.13010
447.43203,0.12378
445.50344,0.11667
443.57485,0.11226
441.64627,0.10937
439.71768,0.10445
437.78910,0.09991
435.86051,0.09194
433.93192,0.08749
432.00334,0.09183
430.07475,0.09189
428.14616,0.08642
426.21758,0.07845
424.28899,0.07010
422.36040,0.06262
420.43182,0.06177
418.50323,0.06146
416.57465,0.05212
414.64606,0.04628
412.71747,0.03829
410.78889,0.02953
408.86030,0.02635
406.93171,0.01669
405.00313,0.00472
403.07454,0.00000
401.14596,-0.00276
399.21737,0.00000
