3747.24323,0.00000
3745.31464,0.00033
3743.38605,0.00041
3741.45747,0.00078
3739.52888,0.00135
3737.60030,0.00169
3735.67171,0.00197
3733.74312,0.00208
3731.81454,0.00246
3729.88595,0.00300
3727.95736,0.00344
3726.02878,0.00393
3724.10019,0.00461
3722.17161,0.00551
3720.24302,0.00668
3718.31443,0.00824
3716.38585,0.00975
3714.45726,0.01145
3712.52867,0.01366
3710.60009,0.01622
3708.67150,0.01880
3706.74291,0.02107
3704.81433,0.02336
3702.88574,0.02582
3700.95716,0.02830
3699.02857,0.03027
3697.09998,0.03129
3695.17140,0.03189
3693.24281,0.03225
3691.31422,0.03277
3689.38564,0.03356
3687.45705,0.03471
3685.52846,0.03656
3683.59988,0.03877
3681.67129,0.04125
3679.74271,0.04390
3677.81412,0.04686
3675.88553,0.05028
3673.95695,0.05390
3672.02836,0.05748
3670.09977,0.06139
3668.17119,0.06528
3666.24260,0.06882
3664.31402,0.07241
3662.38543,0.07614
3660.45684,0.07998
3658.52826,0.08348
3656.59967,0.08694
3654.67108,0.09029
3652.74250,0.09306
3650.81391,0.09589
3648.88532,0.09884
3646.95674,0.10162
3645.02815,0.10427
3643.09957,0.10690
3641.17098,0.10954
3639.24239,0.11208
3637.31381,0.11464
3635.38522,0.11737
3633.45663,0.12004
3631.52805,0.12232
3629.59946,0.12457
3627.67088,0.12677
3625.74229,0.12857
3623.81370,0.12990
3621.88512,0.13050
3619.95653,0.13068
3618.02794,0.13050
3616.09936,0.12987
3614.17077,0.12921
3612.24218,0.12897
3610.31360,0.12882
3608.38501,0.12849
3606.45643,0.12828
3604.52784,0.12812
3602.59925,0.12806
3600.67067,0.12802
3598.74208,0.12792
3596.81349,0.12819
3594.88491,0.12856
3592.95632,0.12880
3591.02774,0.12913
3589.09915,0.12963
3587.17056,0.13021
3585.24198,0.13077
3583.31339,0.13138
3581.38480,0.13214
3579.45622,0.13307
3577.52763,0.13392
3575.59904,0.13477
3573.67046,0.13585
3571.74187,0.13691
3569.81329,0.13812
3567.88470,0.13941
3565.95611,0.14050
3564.02753,0.14156
3562.09894,0.14263
3560.17035,0.14373
3558.24177,0.14499
3556.31318,0.14608
3554.38459,0.14704
3552.45601,0.14825
3550.52742,0.14953
3548.59884,0.15062
3546.67025,0.15174
3544.74166,0.15298
3542.81308,0.15401
3540.88449,0.15502
3538.95590,0.15620
3537.02732,0.15724
3535.09873,0.15833
3533.17015,0.15954
3531.24156,0.16073
3529.31297,0.16185
3527.38439,0.16289
3525.45580,0.16388
3523.52721,0.16483
3521.59863,0.16591
3519.67004,0.16687
3517.74145,0.16782
3515.81287,0.16887
3513.88428,0.16977
3511.95570,0.17085
3510.02711,0.17200
3508.09852,0.17298
3506.16994,0.17396
3504.24135,0.17500
3502.31276,0.17601
3500.38418,0.17695
3498.45559,0.17791
3496.52701,0.17886
3494.59842,0.17978
3492.66983,0.18063
3490.74125,0.18156
3488.81266,0.18253
3486.88407,0.18323
3484.95549,0.18398
3483.02690,0.18498
3481.09831,0.18604
3479.16973,0.18690
3477.24114,0.18744
3475.31256,0.18811
3473.38397,0.18897
3471.45538,0.18967
3469.52680,0.19046
3467.59821,0.19136
3465.66962,0.19210
3463.74104,0.19266
3461.81245,0.19317
3459.88386,0.19397
3457.95528,0.19495
3456.02669,0.19549
3454.09811,0.19587
3452.16952,0.19667
3450.24093,0.19745
3448.31235,0.19806
3446.38376,0.19886
3444.45517,0.19950
3442.52659,0.19989
3440.59800,0.20036
3438.66942,0.20092
3436.74083,0.20159
3434.81224,0.20221
3432.88366,0.20262
3430.95507,0.20288
3429.02648,0.20336
3427.09790,0.20400
3425.16931,0.20455
3423.24072,0.20498
3421.31214,0.20528
3419.38355,0.20572
3417.45497,0.20615
3415.52638,0.20652
3413.59779,0.20693
3411.66921,0.20718
3409.74062,0.20743
3407.81203,0.20784
3405.88345,0.20836
3403.95486,0.20876
3402.02628,0.20912
3400.09769,0.20923
3398.16910,0.20920
3396.24052,0.20940
3394.31193,0.20953
3392.38334,0.20974
3390.45476,0.20992
3388.52617,0.21002
3386.59758,0.21023
3384.66900,0.21040
3382.74041,0.21069
3380.81183,0.21092
3378.88324,0.21101
3376.95465,0.21107
3375.02607,0.21108
3373.09748,0.21115
3371.16889,0.21136
3369.24031,0.21164
3367.31172,0.21172
3365.38314,0.21177
3363.45455,0.21176
3361.52596,0.21168
3359.59738,0.21185
3357.66879,0.21188
3355.74020,0.21180
3353.81162,0.21192
3351.88303,0.21205
3349.95444,0.21205
3348.02586,0.21195
3346.09727,0.21187
3344.16869,0.21187
3342.24010,0.21186
3340.31151,0.21190
3338.38293,0.21192
3336.45434,0.21174
3334.52575,0.21160
3332.59717,0.21154
3330.66858,0.21151
3328.73999,0.21163
3326.81141,0.21137
3324.88282,0.21091
3322.95424,0.21076
3321.02565,0.21067
3319.09706,0.21060
3317.16848,0.21055
3315.23989,0.21039
3313.31130,0.21013
3311.38272,0.20993
3309.45413,0.20974
3307.52555,0.20941
3305.59696,0.20923
3303.66837,0.20919
3301.73979,0.20904
3299.81120,0.20879
3297.88261,0.20839
3295.95403,0.20808
3294.02544,0.20789
3292.09685,0.20759
3290.16827,0.20722
3288.23968,0.20686
3286.31110,0.20655
3284.38251,0.20604
3282.45392,0.20553
3280.52534,0.20515
3278.59675,0.20451
3276.66816,0.20381
3274.73958,0.20324
3272.81099,0.20263
3270.88241,0.20185
3268.95382,0.20110
3267.02523,0.20043
3265.09665,0.19960
3263.16806,0.19872
3261.23947,0.19791
3259.31089,0.19713
3257.38230,0.19626
3255.45371,0.19539
3253.52513,0.19463
3251.59654,0.19385
3249.66796,0.19309
3247.73937,0.19233
3245.81078,0.19152
3243.88220,0.19063
3241.95361,0.18989
3240.02502,0.18926
3238.09644,0.18848
3236.16785,0.18767
3234.23927,0.18686
3232.31068,0.18621
3230.38209,0.18554
3228.45351,0.18476
3226.52492,0.18413
3224.59633,0.18342
3222.66775,0.18269
3220.73916,0.18188
3218.81057,0.18093
3216.88199,0.18018
3214.95340,0.17954
3213.02482,0.17883
3211.09623,0.17805
3209.16764,0.17731
3207.23906,0.17659
3205.31047,0.17577
3203.38188,0.17493
3201.45330,0.17421
3199.52471,0.17360
3197.59612,0.17297
3195.66754,0.17212
3193.73895,0.17123
3191.81037,0.17047
3189.88178,0.16964
3187.95319,0.16878
3186.02461,0.16796
3184.09602,0.16715
3182.16743,0.16635
3180.23885,0.16543
3178.31026,0.16446
3176.38168,0.16355
3174.45309,0.16275
3172.52450,0.16203
3170.59592,0.16122
3168.66733,0.16049
3166.73874,0.15975
3164.81016,0.15886
3162.88157,0.15792
3160.95298,0.15721
3159.02440,0.15663
3157.09581,0.15580
3155.16723,0.15501
3153.23864,0.15435
3151.31005,0.15352
3149.38147,0.15262
3147.45288,0.15181
3145.52429,0.15124
3143.59571,0.15064
3141.66712,0.14992
3139.73854,0.14930
3137.80995,0.14866
3135.88136,0.14796
3133.95278,0.14736
3132.02419,0.14686
3130.09560,0.14632
3128.16702,0.14567
3126.23843,0.14508
3124.30984,0.14456
3122.38126,0.14406
3120.45267,0.14355
3118.52409,0.14316
3116.59550,0.14271
3114.66691,0.14207
3112.73833,0.14149
3110.80974,0.14102
3108.88115,0.14056
3106.95257,0.14012
3105.02398,0.13968
3103.09540,0.13913
3101.16681,0.13860
3099.23822,0.13824
3097.30964,0.13784
3095.38105,0.13734
3093.45246,0.13683
3091.52388,0.13630
3089.59529,0.13582
3087.66670,0.13535
3085.73812,0.13486
3083.80953,0.13450
3081.88095,0.13416
3079.95236,0.13363
3078.02377,0.13301
3076.09519,0.13235
3074.16660,0.13176
3072.23801,0.13128
3070.30943,0.13070
3068.38084,0.13017
3066.45225,0.12967
3064.52367,0.12903
3062.59508,0.12846
3060.66650,0.12789
3058.73791,0.12717
3056.80932,0.12628
3054.88074,0.12543
3052.95215,0.12478
3051.02356,0.12415
3049.09498,0.12354
3047.16639,0.12294
3045.23781,0.12238
3043.30922,0.12180
3041.38063,0.12122
3039.45205,0.12072
3037.52346,0.12023
3035.59487,0.11968
3033.66629,0.11913
3031.73770,0.11867
3029.80911,0.11820
3027.88053,0.11779
3025.95194,0.11748
3024.02336,0.11712
3022.09477,0.11678
3020.16618,0.11647
3018.23760,0.11623
3016.30901,0.11618
3014.38042,0.11617
3012.45184,0.11608
3010.52325,0.11600
3008.59467,0.11605
3006.66608,0.11629
3004.73749,0.11670
3002.80891,0.11717
3000.88032,0.11767
2998.95173,0.11814
2997.02315,0.11865
2995.09456,0.11933
2993.16597,0.12011
2991.23739,0.12102
2989.30880,0.12206
2987.38022,0.12327
2985.45163,0.12474
2983.52304,0.12626
2981.59446,0.12785
2979.66587,0.12962
2977.73728,0.13150
2975.80870,0.13342
2973.88011,0.13536
2971.95153,0.13735
2970.02294,0.13934
2968.09435,0.14155
2966.16577,0.14386
2964.23718,0.14609
2962.30859,0.14832
2960.38001,0.15036
2958.45142,0.15215
2956.52283,0.15375
2954.59425,0.15535
2952.66566,0.15711
2950.73708,0.15884
2948.80849,0.16096
2946.87990,0.16364
2944.95132,0.16667
2943.02273,0.17026
2941.09414,0.17421
2939.16556,0.17847
2937.23697,0.18310
2935.30838,0.18770
2933.37980,0.19213
2931.45121,0.19636
2929.52263,0.20026
2927.59404,0.20353
2925.66545,0.20587
2923.73687,0.20728
2921.80828,0.20740
2919.87969,0.20573
2917.95111,0.20177
2916.02252,0.19498
2914.09394,0.18632
2912.16535,0.17789
2910.23676,0.17097
2908.30818,0.16561
2906.37959,0.16139
2904.45100,0.15795
2902.52242,0.15491
2900.59383,0.15219
2898.66524,0.14962
2896.73666,0.14704
2894.80807,0.14451
2892.87949,0.14206
2890.95090,0.13985
2889.02231,0.13783
2887.09373,0.13585
2885.16514,0.13411
2883.23655,0.13255
2881.30797,0.13126
2879.37938,0.13055
2877.45080,0.13015
2875.52221,0.12996
2873.59362,0.12993
2871.66504,0.12989
2869.73645,0.13005
2867.80786,0.13063
2865.87928,0.13175
2863.95069,0.13356
2862.02210,0.13633
2860.09352,0.14044
2858.16493,0.14559
2856.23635,0.15081
2854.30776,0.15478
2852.37917,0.15617
2850.45059,0.15358
2848.52200,0.14645
2846.59341,0.13651
2844.66483,0.12649
2842.73624,0.11782
2840.80766,0.11070
2838.87907,0.10502
2836.95048,0.10040
2835.02190,0.09656
2833.09331,0.09339
2831.16472,0.09074
2829.23614,0.08853
2827.30755,0.08655
2825.37896,0.08468
2823.45038,0.08298
2821.52179,0.08140
2819.59321,0.08000
2817.66462,0.07872
2815.73603,0.07751
2813.80745,0.07650
2811.87886,0.07551
2809.95027,0.07444
2808.02169,0.07340
2806.09310,0.07245
2804.16451,0.07163
2802.23593,0.07081
2800.30734,0.06997
2798.37876,0.06928
2796.45017,0.06859
2794.52158,0.06779
2792.59300,0.06706
2790.66441,0.06647
2788.73582,0.06593
2786.80724,0.06530
2784.87865,0.06468
2782.95007,0.06401
2781.02148,0.06336
2779.09289,0.06287
2777.16431,0.06240
2775.23572,0.06189
2773.30713,0.06134
2771.37855,0.06080
2769.44996,0.06041
2767.52137,0.06007
2765.59279,0.05963
2763.66420,0.05912
2761.73562,0.05870
2759.80703,0.05834
2757.87844,0.05796
2755.94986,0.05758
2754.02127,0.05730
2752.09268,0.05706
2750.16410,0.05665
2748.23551,0.05621
2746.30693,0.05588
2744.37834,0.05555
2742.44975,0.05528
2740.52117,0.05500
2738.59258,0.05463
2736.66399,0.05435
2734.73541,0.05413
2732.80682,0.05377
2730.87823,0.05336
2728.94965,0.05299
2727.02106,0.05261
2725.09248,0.05228
2723.16389,0.05190
2721.23530,0.05151
2719.30672,0.05113
2717.37813,0.05073
2715.44954,0.05035
2713.52096,0.05001
2711.59237,0.04969
2709.66379,0.04928
2707.73520,0.04883
2705.80661,0.04850
2703.87803,0.04816
2701.94944,0.04781
2700.02085,0.04745
2698.09227,0.04708
2696.16368,0.04679
2694.23509,0.04662
2692.30651,0.04642
2690.37792,0.04612
2688.44934,0.04590
2686.52075,0.04571
2684.59216,0.04538
2682.66358,0.04510
2680.73499,0.04492
2678.80640,0.04472
2676.87782,0.04438
2674.94923,0.04399
2673.02064,0.04373
2671.09206,0.04350
2669.16347,0.04322
2667.23489,0.04283
2665.30630,0.04249
2663.37771,0.04229
2661.44913,0.04208
2659.52054,0.04183
2657.59195,0.04154
2655.66337,0.04125
2653.73478,0.04099
2651.80620,0.04073
2649.87761,0.04050
2647.94902,0.04027
2646.02044,0.04005
2644.09185,0.03985
2642.16326,0.03957
2640.23468,0.03926
2638.30609,0.03897
2636.37750,0.03874
2634.44892,0.03847
2632.52033,0.03818
2630.59175,0.03789
2628.66316,0.03759
2626.73457,0.03734
2624.80599,0.03703
2622.87740,0.03672
2620.94881,0.03655
2619.02023,0.03634
2617.09164,0.03602
2615.16306,0.03576
2613.23447,0.03554
2611.30588,0.03526
2609.37730,0.03499
2607.44871,0.03468
2605.52012,0.03432
2603.59154,0.03408
2601.66295,0.03390
2599.73436,0.03367
2597.80578,0.03343
2595.87719,0.03316
2593.94861,0.03281
2592.02002,0.03242
2590.09143,0.03213
2588.16285,0.03196
2586.23426,0.03179
2584.30567,0.03147
2582.37709,0.03109
2580.44850,0.03076
2578.51991,0.03050
2576.59133,0.03031
2574.66274,0.03000
2572.73416,0.02971
2570.80557,0.02958
2568.87698,0.02931
2566.94840,0.02896
2565.01981,0.02871
2563.09122,0.02846
2561.16264,0.02825
2559.23405,0.02803
2557.30547,0.02781
2555.37688,0.02763
2553.44829,0.02738
2551.51971,0.02710
2549.59112,0.02682
2547.66253,0.02650
2545.73395,0.02629
2543.80536,0.02613
2541.87677,0.02587
2539.94819,0.02561
2538.01960,0.02545
2536.09102,0.02526
2534.16243,0.02507
2532.23384,0.02491
2530.30526,0.02470
2528.37667,0.02449
2526.44808,0.02427
2524.51950,0.02392
2522.59091,0.02358
2520.66233,0.02337
2518.73374,0.02322
2516.80515,0.02294
2514.87657,0.02257
2512.94798,0.02234
2511.01939,0.02221
2509.09081,0.02209
2507.16222,0.02186
2505.23363,0.02161
2503.30505,0.02135
2501.37646,0.02103
2499.44788,0.02077
2497.51929,0.02051
2495.59070,0.02023
2493.66212,0.01998
2491.73353,0.01975
2489.80494,0.01955
2487.87636,0.01923
2485.94777,0.01894
2484.01919,0.01874
2482.09060,0.01846
2480.16201,0.01822
2478.23343,0.01797
2476.30484,0.01770
2474.37625,0.01751
2472.44767,0.01730
2470.51908,0.01699
2468.59049,0.01667
2466.66191,0.01641
2464.73332,0.01619
2462.80474,0.01599
2460.87615,0.01573
2458.94756,0.01548
2457.01898,0.01527
2455.09039,0.01508
2453.16180,0.01486
2451.23322,0.01450
2449.30463,0.01419
2447.37604,0.01402
2445.44746,0.01379
2443.51887,0.01358
2441.59029,0.01341
2439.66170,0.01318
2437.73311,0.01290
2435.80453,0.01263
2433.87594,0.01243
2431.94735,0.01223
2430.01877,0.01200
2428.09018,0.01177
2426.16160,0.01155
2424.23301,0.01134
2422.30442,0.01109
2420.37584,0.01087
2418.44725,0.01065
2416.51866,0.01045
2414.59008,0.01027
2412.66149,0.01007
2410.73290,0.00982
2408.80432,0.00949
2406.87573,0.00928
2404.94715,0.00915
2403.01856,0.00893
2401.08997,0.00869
2399.16139,0.00851
2397.23280,0.00837
2395.30421,0.00819
2393.37563,0.00793
2391.44704,0.00768
2389.51846,0.00750
2387.58987,0.00738
2385.66128,0.00722
2383.73270,0.00709
2381.80411,0.00698
2379.87552,0.00689
2377.94694,0.00678
2376.01835,0.00659
2374.08976,0.00648
2372.16118,0.00640
2370.23259,0.00634
2368.30401,0.00626
2366.37542,0.00615
2364.44683,0.00605
2362.51825,0.00589
2360.58966,0.00575
2358.66107,0.00559
2356.73249,0.00537
2354.80390,0.00515
2352.87532,0.00485
2350.94673,0.00458
2349.01814,0.00452
2347.08956,0.00448
2345.16097,0.00443
2343.23238,0.00448
2341.30380,0.00454
2339.37521,0.00456
2337.44662,0.00447
2335.51804,0.00422
2333.58945,0.00396
2331.66087,0.00373
2329.73228,0.00356
2327.80369,0.00340
2325.87511,0.00323
2323.94652,0.00308
2322.01793,0.00290
2320.08935,0.00277
2318.16076,0.00266
2316.23217,0.00256
2314.30359,0.00245
2312.37500,0.00229
2310.44642,0.00222
2308.51783,0.00222
2306.58924,0.00213
2304.66066,0.00197
2302.73207,0.00190
2300.80348,0.00176
2298.87490,0.00160
2296.94631,0.00159
2295.01773,0.00148
2293.08914,0.00137
2291.16055,0.00130
2289.23197,0.00115
2287.30338,0.00106
2285.37479,0.00096
2283.44621,0.00096
2281.51762,0.00097
2279.58903,0.00088
2277.66045,0.00084
2275.73186,0.00079
2273.80328,0.00077
2271.87469,0.00074
2269.94610,0.00063
2268.01752,0.00058
2266.08893,0.00055
2264.16034,0.00047
2262.23176,0.00042
2260.30317,0.00036
2258.37459,0.00032
2256.44600,0.00030
2254.51741,0.00024
2252.58883,0.00021
2250.66024,0.00024
2248.73165,0.00030
2246.80307,0.00033
2244.87448,0.00030
2242.94589,0.00031
2241.01731,0.00031
2239.08872,0.00029
2237.16014,0.00019
2235.23155,0.00009
2233.30296,0.00011
2231.37438,0.00012
2229.44579,0.00007
2227.51720,0.00003
2225.58862,-0.00002
2223.66003,-0.00004
2221.73145,-0.00003
2219.80286,0.00003
2217.87427,0.00005
2215.94569,-0.00003
2214.01710,-0.00008
2212.08851,-0.00007
2210.15993,-0.00007
2208.23134,-0.00009
2206.30275,-0.00005
2204.37417,-0.00002
2202.44558,0.00003
2200.51700,0.00008
2198.58841,0.00007
2196.65982,0.00003
2194.73124,0.00000
2192.80265,0.00001
2190.87406,0.00002
2188.94548,0.00003
2187.01689,0.00009
2185.08830,0.00012
2183.15972,0.00016
2181.23113,0.00020
2179.30255,0.00023
2177.37396,0.00027
2175.44537,0.00026
2173.51679,0.00024
2171.58820,0.00008
2169.65961,0.00000
2167.73103,0.00016
2165.80244,0.00025
2163.87386,0.00023
2161.94527,0.00030
2160.01668,0.00041
2158.08810,0.00040
2156.15951,0.00037
2154.23092,0.00040
2152.30234,0.00037
2150.37375,0.00029
2148.44516,0.00032
2146.51658,0.00031
2144.58799,0.00027
2142.65941,0.00025
2140.73082,0.00021
2138.80223,0.00028
2136.87365,0.00039
2134.94506,0.00039
2133.01647,0.00032
2131.08789,0.00020
2129.15930,0.00017
2127.23072,0.00025
2125.30213,0.00022
2123.37354,0.00013
2121.44496,0.00010
2119.51637,0.00007
2117.58778,0.00003
2115.65920,0.00001
2113.73061,-0.00003
2111.80202,-0.00004
2109.87344,-0.00002
2107.94485,0.00003
2106.01627,0.00007
2104.08768,0.00002
2102.15909,-0.00001
2100.23051,-0.00000
2098.30192,0.00000
2096.37333,0.00004
2094.44475,0.00010
2092.51616,0.00012
2090.58758,0.00008
2088.65899,0.00009
2086.73040,0.00012
2084.80182,0.00007
2082.87323,-0.00003
2080.94464,0.00000
2079.01606,0.00006
2077.08747,0.00007
2075.15888,0.00006
2073.23030,-0.00000
2071.30171,-0.00003
2069.37313,-0.00001
2067.44454,0.00002
2065.51595,0.00007
2063.58737,0.00008
2061.65878,0.00011
2059.73019,0.00010
2057.80161,0.00005
2055.87302,0.00013
2053.94443,0.00017
2052.01585,0.00021
2050.08726,0.00031
2048.15868,0.00041
2046.23009,0.00049
2044.30150,0.00057
2042.37292,0.00072
2040.44433,0.00086
2038.51574,0.00102
2036.58716,0.00120
2034.65857,0.00137
2032.72999,0.00159
2030.80140,0.00177
2028.87281,0.00190
2026.94423,0.00195
2025.01564,0.00190
2023.08705,0.00192
2021.15847,0.00195
2019.22988,0.00192
2017.30129,0.00196
2015.37271,0.00209
2013.44412,0.00221
2011.51554,0.00232
2009.58695,0.00257
2007.65836,0.00280
2005.72978,0.00286
2003.80119,0.00291
2001.87260,0.00296
1999.94402,0.00299
1998.01543,0.00295
1996.08685,0.00291
1994.15826,0.00291
1992.22967,0.00289
1990.30109,0.00286
1988.37250,0.00276
1986.44391,0.00265
1984.51533,0.00257
1982.58674,0.00248
1980.65815,0.00240
1978.72957,0.00234
1976.80098,0.00226
1974.87240,0.00217
1972.94381,0.00207
1971.01522,0.00188
1969.08664,0.00169
1967.15805,0.00159
1965.22946,0.00144
1963.30088,0.00126
1961.37229,0.00111
1959.44371,0.00095
1957.51512,0.00086
1955.58653,0.00085
1953.65795,0.00083
1951.72936,0.00072
1949.80077,0.00060
1947.87219,0.00051
1945.94360,0.00052
1944.01501,0.00050
1942.08643,0.00036
1940.15784,0.00020
1938.22926,0.00011
1936.30067,0.00009
1934.37208,0.00006
1932.44350,0.00001
1930.51491,-0.00003
1928.58632,-0.00007
1926.65774,-0.00004
1924.72915,0.00000
1922.80056,-0.00004
1920.87198,0.00006
1918.94339,0.00019
1917.01481,0.00022
1915.08622,0.00044
1913.15763,0.00083
1911.22905,0.00123
1909.30046,0.00162
1907.37187,0.00202
1905.44329,0.00249
1903.51470,0.00290
1901.58612,0.00326
1899.65753,0.00366
1897.72894,0.00404
1895.80036,0.00446
1893.87177,0.00492
1891.94318,0.00532
1890.01460,0.00563
1888.08601,0.00581
1886.15742,0.00603
1884.22884,0.00625
1882.30025,0.00643
1880.37167,0.00659
1878.44308,0.00669
1876.51449,0.00674
1874.58591,0.00676
1872.65732,0.00678
1870.72873,0.00676
1868.80015,0.00666
1866.87156,0.00642
1864.94298,0.00613
1863.01439,0.00581
1861.08580,0.00535
1859.15722,0.00476
1857.22863,0.00410
1855.30004,0.00347
1853.37146,0.00280
1851.44287,0.00225
1849.51428,0.00180
1847.58570,0.00131
1845.65711,0.00094
1843.72853,0.00055
1841.79994,0.00021
1839.87135,0.00000
1837.94277,-0.00025
1836.01418,-0.00034
1834.08559,-0.00039
1832.15701,-0.00037
1830.22842,-0.00033
1828.29984,-0.00022
1826.37125,0.00000
1824.44266,0.00026
1822.51408,0.00063
1820.58549,0.00109
1818.65690,0.00163
1816.72832,0.00222
1814.79973,0.00295
1812.87114,0.00380
1810.94256,0.00478
1809.01397,0.00582
1807.08539,0.00687
1805.15680,0.00806
1803.22821,0.00943
1801.29963,0.01095
1799.37104,0.01248
1797.44245,0.01417
1795.51387,0.01604
1793.58528,0.01803
1791.65669,0.02013
1789.72811,0.02206
1787.79952,0.02412
1785.87094,0.02635
1783.94235,0.02859
1782.01376,0.03086
1780.08518,0.03316
1778.15659,0.03543
1776.22800,0.03753
1774.29942,0.03965
1772.37083,0.04177
1770.44225,0.04379
1768.51366,0.04584
1766.58507,0.04788
1764.65649,0.04994
1762.72790,0.05199
1760.79931,0.05423
1758.87073,0.05666
1756.94214,0.05924
1755.01355,0.06201
1753.08497,0.06505
1751.15638,0.06843
1749.22780,0.07201
1747.29921,0.07585
1745.37062,0.07986
1743.44204,0.08409
1741.51345,0.08841
1739.58486,0.09270
1737.65628,0.09658
1735.72769,0.10006
1733.79911,0.10338
1731.87052,0.10615
1729.94193,0.10878
1728.01335,0.11137
1726.08476,0.11393
1724.15617,0.11655
1722.22759,0.11919
1720.29900,0.12205
1718.37041,0.12483
1716.44183,0.12734
1714.51324,0.12946
1712.58466,0.13151
1710.65607,0.13357
1708.72748,0.13534
1706.79890,0.13715
1704.87031,0.13889
1702.94172,0.14081
1701.01314,0.14303
1699.08455,0.14530
1697.15596,0.14786
1695.22738,0.15049
1693.29879,0.15294
1691.37021,0.15553
1689.44162,0.15831
1687.51303,0.16100
1685.58445,0.16372
1683.65586,0.16649
1681.72727,0.16915
1679.79869,0.17180
1677.87010,0.17447
1675.94152,0.17704
1674.01293,0.17935
1672.08434,0.18170
1670.15576,0.18391
1668.22717,0.18586
1666.29858,0.18754
1664.37000,0.18908
1662.44141,0.19053
1660.51282,0.19163
1658.58424,0.19253
1656.65565,0.19319
1654.72707,0.19388
1652.79848,0.19394
1650.86989,0.19364
1648.94131,0.19378
1647.01272,0.19373
1645.08413,0.19356
1643.15555,0.19335
1641.22696,0.19334
1639.29838,0.19345
1637.36979,0.19358
1635.44120,0.19359
1633.51262,0.19329
1631.58403,0.19309
1629.65544,0.19237
1627.72686,0.19122
1625.79827,0.18985
1623.86968,0.18814
1621.94110,0.18616
1620.01251,0.18437
1618.08393,0.18277
1616.15534,0.18063
1614.22675,0.17886
1612.29817,0.17722
1610.36958,0.17540
1608.44099,0.17370
1606.51241,0.17214
1604.58382,0.17073
1602.65524,0.16902
1600.72665,0.16742
1598.79806,0.16590
1596.86948,0.16437
1594.94089,0.16280
1593.01230,0.16113
1591.08372,0.15947
1589.15513,0.15761
1587.22654,0.15579
1585.29796,0.15373
1583.36937,0.15178
1581.44079,0.14994
1579.51220,0.14808
1577.58361,0.14647
1575.65503,0.14452
1573.72644,0.14301
1571.79785,0.14206
1569.86927,0.14112
1567.94068,0.14039
1566.01209,0.13992
1564.08351,0.13963
1562.15492,0.13964
1560.22634,0.13984
1558.29775,0.13956
1556.36916,0.13946
1554.44058,0.13962
1552.51199,0.13964
1550.58340,0.13960
1548.65482,0.13933
1546.72623,0.13911
1544.79765,0.13876
1542.86906,0.13824
1540.94047,0.13766
1539.01189,0.13649
1537.08330,0.13555
1535.15471,0.13487
1533.22613,0.13382
1531.29754,0.13255
1529.36895,0.13143
1527.44037,0.13034
1525.51178,0.12926
1523.58320,0.12855
1521.65461,0.12801
1519.72602,0.12789
1517.79744,0.12788
1515.86885,0.12729
1513.94026,0.12588
1512.01168,0.12372
1510.08309,0.12147
1508.15451,0.11909
1506.22592,0.11562
1504.29733,0.11183
1502.36875,0.10847
1500.44016,0.10501
1498.51157,0.10139
1496.58299,0.09776
1494.65440,0.09439
1492.72581,0.09169
1490.79723,0.08940
1488.86864,0.08731
1486.94006,0.08579
1485.01147,0.08488
1483.08288,0.08456
1481.15430,0.08481
1479.22571,0.08577
1477.29712,0.08775
1475.36854,0.09073
1473.43995,0.09508
1471.51137,0.10056
1469.58278,0.10600
1467.65419,0.11063
1465.72561,0.11357
1463.79702,0.11506
1461.86843,0.11587
1459.93985,0.11662
1458.01126,0.11762
1456.08267,0.11834
1454.15409,0.11877
1452.22550,0.11875
1450.29692,0.11841
1448.36833,0.11804
1446.43974,0.11761
1444.51116,0.11733
1442.58257,0.11710
1440.65398,0.11688
1438.72540,0.11691
1436.79681,0.11714
1434.86822,0.11719
1432.93964,0.11735
1431.01105,0.11761
1429.08247,0.11767
1427.15388,0.11796
1425.22529,0.11841
1423.29671,0.11894
1421.36812,0.11958
1419.43953,0.12007
1417.51095,0.12013
1415.58236,0.12007
1413.65378,0.11998
1411.72519,0.11984
1409.79660,0.11979
1407.86802,0.11960
1405.93943,0.11935
1404.01084,0.11895
1402.08226,0.11842
1400.15367,0.11782
1398.22508,0.11688
1396.29650,0.11580
1394.36791,0.11463
1392.43933,0.11368
1390.51074,0.11321
1388.58215,0.11281
1386.65357,0.11209
1384.72498,0.11134
1382.79639,0.11149
1380.86781,0.11224
1378.93922,0.11262
1377.01064,0.11236
1375.08205,0.11161
1373.15346,0.11057
1371.22488,0.10925
1369.29629,0.10791
1367.36770,0.10661
1365.43912,0.10530
1363.51053,0.10389
1361.58194,0.10254
1359.65336,0.10135
1357.72477,0.10020
1355.79619,0.09921
1353.86760,0.09840
1351.93901,0.09760
1350.01043,0.09683
1348.08184,0.09618
1346.15325,0.09564
1344.22467,0.09507
1342.29608,0.09451
1340.36750,0.09405
1338.43891,0.09357
1336.51032,0.09315
1334.58174,0.09280
1332.65315,0.09241
1330.72456,0.09204
1328.79598,0.09166
1326.86739,0.09132
1324.93880,0.09101
1323.01022,0.09064
1321.08163,0.09032
1319.15305,0.08999
1317.22446,0.08971
1315.29587,0.08948
1313.36729,0.08922
1311.43870,0.08893
1309.51011,0.08854
1307.58153,0.08816
1305.65294,0.08798
1303.72435,0.08784
1301.79577,0.08771
1299.86718,0.08778
1297.93860,0.08797
1296.01001,0.08815
1294.08142,0.08850
1292.15284,0.08922
1290.22425,0.09024
1288.29566,0.09128
1286.36708,0.09242
1284.43849,0.09381
1282.50991,0.09540
1280.58132,0.09709
1278.65273,0.09865
1276.72415,0.10031
1274.79556,0.10211
1272.86697,0.10389
1270.93839,0.10587
1269.00980,0.10805
1267.08121,0.11016
1265.15263,0.11236
1263.22404,0.11491
1261.29546,0.11788
1259.36687,0.12127
1257.43828,0.12512
1255.50970,0.12951
1253.58111,0.13443
1251.65252,0.13957
1249.72394,0.14481
1247.79535,0.15013
1245.86677,0.15520
1243.93818,0.16002
1242.00959,0.16457
1240.08101,0.16869
1238.15242,0.17262
1236.22383,0.17630
1234.29525,0.17943
1232.36666,0.18216
1230.43807,0.18483
1228.50949,0.18751
1226.58090,0.18997
1224.65232,0.19211
1222.72373,0.19407
1220.79514,0.19607
1218.86656,0.19803
1216.93797,0.19973
1215.00938,0.20129
1213.08080,0.20284
1211.15221,0.20466
1209.22363,0.20655
1207.29504,0.20820
1205.36645,0.20969
1203.43787,0.21103
1201.50928,0.21241
1199.58069,0.21375
1197.65211,0.21492
1195.72352,0.21605
1193.79493,0.21731
1191.86635,0.21865
1189.93776,0.21988
1188.00918,0.22117
1186.08059,0.22244
1184.15200,0.22399
1182.22342,0.22589
1180.29483,0.22783
1178.36624,0.23025
1176.43766,0.23283
1174.50907,0.23533
1172.58048,0.23784
1170.65190,0.24035
1168.72331,0.24283
1166.79473,0.24511
1164.86614,0.24765
1162.93755,0.25018
1161.00897,0.25195
1159.08038,0.25296
1157.15179,0.25380
1155.22321,0.25512
1153.29462,0.25665
1151.36604,0.25812
1149.43745,0.25958
1147.50886,0.26117
1145.58028,0.26318
1143.65169,0.26556
1141.72310,0.26807
1139.79452,0.27092
1137.86593,0.27430
1135.93734,0.27774
1134.00876,0.28107
1132.08017,0.28433
1130.15159,0.28758
1128.22300,0.29167
1126.29441,0.29679
1124.36583,0.30190
1122.43724,0.30664
1120.50865,0.31165
1118.58007,0.31703
1116.65148,0.32264
1114.72290,0.32826
1112.79431,0.33409
1110.86572,0.34047
1108.93714,0.34635
1107.00855,0.35118
1105.07996,0.35541
1103.15138,0.35906
1101.22279,0.36191
1099.29420,0.36402
1097.36562,0.36521
1095.43703,0.36566
1093.50845,0.36569
1091.57986,0.36488
1089.65127,0.36371
1087.72269,0.36250
1085.79410,0.36089
1083.86551,0.35883
1081.93693,0.35663
1080.00834,0.35484
1078.07976,0.35287
1076.15117,0.35053
1074.22258,0.34819
1072.29400,0.34619
1070.36541,0.34422
1068.43682,0.34185
1066.50824,0.34016
1064.57965,0.33865
1062.65106,0.33657
1060.72248,0.33442
1058.79389,0.33195
1056.86531,0.32922
1054.93672,0.32667
1053.00813,0.32442
1051.07955,0.32212
1049.15096,0.32004
1047.22237,0.31879
1045.29379,0.31848
1043.36520,0.31868
1041.43661,0.31890
1039.50803,0.31936
1037.57944,0.31973
1035.65086,0.31955
1033.72227,0.31884
1031.79368,0.31751
1029.86510,0.31533
1027.93651,0.31220
1026.00792,0.30876
1024.07934,0.30526
1022.15075,0.30162
1020.22217,0.29790
1018.29358,0.29418
1016.36499,0.29089
1014.43641,0.28749
1012.50782,0.28350
1010.57923,0.27990
1008.65065,0.27673
1006.72206,0.27288
1004.79347,0.26834
1002.86489,0.26348
1000.93630,0.25836
999.00772,0.25336
997.07913,0.24833
995.15054,0.24304
993.22196,0.23760
991.29337,0.23180
989.36478,0.22591
987.43620,0.21999
985.50761,0.21371
983.57903,0.20711
981.65044,0.20008
979.72185,0.19257
977.79327,0.18471
975.86468,0.17664
973.93609,0.16871
972.00751,0.16096
970.07892,0.15332
968.15033,0.14593
966.22175,0.13930
964.29316,0.13350
962.36458,0.12786
960.43599,0.12254
958.50740,0.11803
956.57882,0.11398
954.65023,0.11047
952.72164,0.10742
950.79306,0.10463
948.86447,0.10242
946.93589,0.10043
945.00730,0.09851
943.07871,0.09704
941.15013,0.09584
939.22154,0.09481
937.29295,0.09374
935.36437,0.09243
933.43578,0.09113
931.50719,0.08993
929.57861,0.08881
927.65002,0.08789
925.72144,0.08696
923.79285,0.08623
921.86426,0.08579
919.93568,0.08508
918.00709,0.08457
916.07850,0.08436
914.14992,0.08364
912.22133,0.08213
910.29274,0.07966
908.36416,0.07612
906.43557,0.07200
904.50699,0.06761
902.57840,0.06290
900.64981,0.05810
898.72123,0.05309
896.79264,0.04855
894.86405,0.04508
892.93547,0.04167
891.00688,0.03816
889.07830,0.03508
887.14971,0.03245
885.22112,0.02981
883.29254,0.02711
881.36395,0.02473
879.43536,0.02203
877.50678,0.01929
875.57819,0.01685
873.64960,0.01410
871.72102,0.01143
869.79243,0.00922
867.86385,0.00730
865.93526,0.00528
864.00667,0.00355
862.07809,0.00225
860.14950,0.00121
858.22091,0.00062
856.29233,0.00000
854.36374,-0.00047
852.43516,-0.00070
850.50657,-0.00070
848.57798,0.00029
846.64940,0.00159
844.72081,0.00307
842.79222,0.00506
840.86364,0.00762
838.93505,0.01049
837.00646,0.01361
835.07788,0.01727
833.14929,0.02019
831.22071,0.02233
829.29212,0.02446
827.36353,0.02587
825.43495,0.02682
823.50636,0.02788
821.57777,0.02885
819.64919,0.02979
817.72060,0.03121
815.79201,0.03303
813.86343,0.03523
811.93484,0.03800
810.00626,0.04110
808.07767,0.04508
806.14908,0.05047
804.22050,0.05637
802.29191,0.06081
800.36332,0.06287
798.43474,0.06227
796.50615,0.05887
794.57757,0.05436
792.64898,0.04999
790.72039,0.04646
788.79181,0.04430
786.86322,0.04329
784.93463,0.04306
783.00605,0.04307
781.07746,0.04295
779.14887,0.04148
777.22029,0.03767
775.29170,0.03235
773.36312,0.02712
771.43453,0.02301
769.50594,0.01982
767.57736,0.01771
765.64877,0.01656
763.72018,0.01578
761.79160,0.01572
759.86301,0.01638
757.93443,0.01670
756.00584,0.01631
754.07725,0.01596
752.14867,0.01550
750.22008,0.01469
748.29149,0.01366
746.36291,0.01237
744.43432,0.01090
742.50573,0.00895
740.57715,0.00695
738.64856,0.00509
736.71998,0.00324
734.79139,0.00197
732.86280,0.00126
730.93422,0.00114
729.00563,0.00128
727.07704,0.00117
725.14846,0.00144
723.21987,0.00187
721.29129,0.00117
719.36270,0.00040
717.43411,0.00025
715.50553,-0.00053
713.57694,-0.00130
711.64835,-0.00154
709.71977,-0.00115
707.79118,0.00020
705.86259,0.00169
703.93401,0.00356
702.00542,0.00612
700.07684,0.00950
698.14825,0.01347
696.21966,0.01621
694.29108,0.01583
692.36249,0.01324
690.43390,0.01041
688.50532,0.00766
686.57673,0.00611
684.64814,0.00579
682.71956,0.00552
680.79097,0.00505
678.86239,0.00388
676.93380,0.00278
675.00521,0.00246
673.07663,0.00227
671.14804,0.00193
669.21945,0.00168
667.29087,0.00101
665.36228,0.00016
663.43370,-0.00004
661.50511,-0.00015
659.57652,0.00028
657.64794,0.00104
655.71935,0.00154
653.79076,0.00237
651.86218,0.00301
649.93359,0.00325
648.00500,0.00369
646.07642,0.00447
644.14783,0.00431
642.21925,0.00365
640.29066,0.00466
638.36207,0.00623
636.43349,0.00705
634.50490,0.00763
632.57631,0.00784
630.64773,0.00798
628.71914,0.00906
626.79056,0.01022
624.86197,0.01067
622.93338,0.01072
621.00480,0.01041
619.07621,0.01135
617.14762,0.01303
615.21904,0.01367
613.29045,0.01452
611.36186,0.01599
609.43328,0.01728
607.50469,0.01873
605.57611,0.02041
603.64752,0.02195
601.71893,0.02308
599.79035,0.02378
597.86176,0.02542
595.93317,0.02748
594.00459,0.02965
592.07600,0.03323
590.14742,0.03582
588.21883,0.03757
586.29024,0.04060
584.36166,0.04403
582.43307,0.04733
580.50448,0.05037
578.57590,0.05388
576.64731,0.05706
574.71872,0.06009
572.79014,0.06373
570.86155,0.06675
568.93297,0.07166
567.00438,0.07760
565.07579,0.08125
563.14721,0.08616
561.21862,0.09199
559.29003,0.09457
557.36145,0.09753
555.43286,0.10315
553.50427,0.10717
551.57569,0.10952
549.64710,0.11142
547.71852,0.11331
545.78993,0.11806
543.86134,0.12248
541.93276,0.12513
540.00417,0.13082
538.07558,0.13689
536.14700,0.14085
534.21841,0.14362
532.28983,0.14539
530.36124,0.14796
528.43265,0.14853
526.50407,0.14648
524.57548,0.14466
522.64689,0.14246
520.71831,0.13940
518.78972,0.13565
516.86113,0.13183
514.93255,0.12846
513.00396,0.12508
511.07538,0.12025
509.14679,0.11656
507.21820,0.11737
505.28962,0.11778
503.36103,0.11766
501.43244,0.12122
499.50386,0.12490
497.57527,0.12876
495.64669,0.13544
493.71810,0.14423
491.78951,0.15470
489.86093,0.16523
487.93234,0.17687
486.00375,0.18791
484.07517,0.19799
482.14658,0.21006
480.21799,0.21894
478.28941,0.22700
476.36082,0.23480
474.43224,0.23765
472.50365,0.23780
470.57506,0.23358
468.64648,0.22964
466.71789,0.22704
464.78930,0.21748
462.86072,0.20405
460.93213,0.19536
459.00355,0.18659
457.07496,0.17334
455.14637,0.15993
453.21779,0.14981
451.28920,0.14184
449.36061,0.13144
447.43203,0.12697
445.50344,0.12471
443.57485,0.11885
441.64627,0.11564
439.71768,0.10792
437.78910,0.10144
435.86051,0.09898
433.93192,0.09675
432.00334,0.09567
430.07475,0.09337
428.14616,0.09300
426.21758,0.08671
424.28899,0.07717
422.36040,0.07200
420.43182,0.06868
418.50323,0.06509
416.57465,0.06034
414.64606,0.05555
412.71747,0.04519
410.78889,0.03542
408.86030,0.02847
406.93171,0.02596
405.00313,0.02512
403.07454,0.01639
401.14596,0.00575
399.21737,0.00000
