3747.24323,0.00000
3745.31464,0.00064
3743.38605,0.00100
3741.45747,0.00126
3739.52888,0.00190
3737.60030,0.00251
3735.67171,0.00296
3733.74312,0.00344
3731.81454,0.00402
3729.88595,0.00437
3727.95736,0.00485
3726.02878,0.00569
3724.10019,0.00662
3722.17161,0.00770
3720.24302,0.00893
3718.31443,0.01052
3716.38585,0.01239
3714.45726,0.01455
3712.52867,0.01705
3710.60009,0.01958
3708.67150,0.02226
3706.74291,0.02500
3704.81433,0.02795
3702.88574,0.03116
3700.95716,0.03394
3699.02857,0.03598
3697.09998,0.03722
3695.17140,0.03779
3693.24281,0.03820
3691.31422,0.03917
3689.38564,0.04035
3687.45705,0.04147
3685.52846,0.04311
3683.59988,0.04521
3681.67129,0.04794
3679.74271,0.05108
3677.81412,0.05439
3675.88553,0.05805
3673.95695,0.06179
3672.02836,0.06582
3670.09977,0.07005
3668.17119,0.07380
3666.24260,0.07749
3664.31402,0.08143
3662.38543,0.08537
3660.45684,0.08923
3658.52826,0.09306
3656.59967,0.09671
3654.67108,0.09999
3652.74250,0.10316
3650.81391,0.10638
3648.88532,0.10946
3646.95674,0.11223
3645.02815,0.11478
3643.09957,0.11749
3641.17098,0.12021
3639.24239,0.12273
3637.31381,0.12539
3635.38522,0.12825
3633.45663,0.13112
3631.52805,0.13398
3629.59946,0.13642
3627.67088,0.13810
3625.74229,0.13951
3623.81370,0.14083
3621.88512,0.14180
3619.95653,0.14197
3618.02794,0.14098
3616.09936,0.13973
3614.17077,0.13875
3612.24218,0.13797
3610.31360,0.13748
3608.38501,0.13689
3606.45643,0.13612
3604.52784,0.13555
3602.59925,0.13518
3600.67067,0.13501
3598.74208,0.13488
3596.81349,0.13463
3594.88491,0.13446
3592.95632,0.13433
3591.02774,0.13468
3589.09915,0.13530
3587.17056,0.13560
3585.24198,0.13595
3583.31339,0.13643
3581.38480,0.13695
3579.45622,0.13757
3577.52763,0.13837
3575.59904,0.13925
3573.67046,0.14011
3571.74187,0.14111
3569.81329,0.14212
3567.88470,0.14325
3565.95611,0.14445
3564.02753,0.14554
3562.09894,0.14665
3560.17035,0.14775
3558.24177,0.14899
3556.31318,0.15026
3554.38459,0.15136
3552.45601,0.15246
3550.52742,0.15347
3548.59884,0.15460
3546.67025,0.15596
3544.74166,0.15714
3542.81308,0.15815
3540.88449,0.15934
3538.95590,0.16068
3537.02732,0.16193
3535.09873,0.16304
3533.17015,0.16405
3531.24156,0.16506
3529.31297,0.16616
3527.38439,0.16741
3525.45580,0.16858
3523.52721,0.16967
3521.59863,0.17085
3519.67004,0.17188
3517.74145,0.17280
3515.81287,0.17389
3513.88428,0.17496
3511.95570,0.17579
3510.02711,0.17669
3508.09852,0.17785
3506.16994,0.17895
3504.24135,0.18015
3502.31276,0.18142
3500.38418,0.18234
3498.45559,0.18315
3496.52701,0.18416
3494.59842,0.18524
3492.66983,0.18622
3490.74125,0.18717
3488.81266,0.18817
3486.88407,0.18903
3484.95549,0.18976
3483.02690,0.19049
3481.09831,0.19132
3479.16973,0.19228
3477.24114,0.19329
3475.31256,0.19423
3473.38397,0.19505
3471.45538,0.19591
3469.52680,0.19673
3467.59821,0.19740
3465.66962,0.19827
3463.74104,0.19913
3461.81245,0.19970
3459.88386,0.20039
3457.95528,0.20105
3456.02669,0.20166
3454.09811,0.20235
3452.16952,0.20317
3450.24093,0.20422
3448.31235,0.20487
3446.38376,0.20519
3444.45517,0.20564
3442.52659,0.20634
3440.59800,0.20728
3438.66942,0.20802
3436.74083,0.20846
3434.81224,0.20883
3432.88366,0.20952
3430.95507,0.21035
3429.02648,0.21093
3427.09790,0.21135
3425.16931,0.21171
3423.24072,0.21235
3421.31214,0.21300
3419.38355,0.21350
3417.45497,0.21398
3415.52638,0.21429
3413.59779,0.21459
3411.66921,0.21505
3409.74062,0.21559
3407.81203,0.21593
3405.88345,0.21615
3403.95486,0.21640
3402.02628,0.21668
3400.09769,0.21710
3398.16910,0.21745
3396.24052,0.21770
3394.31193,0.21798
3392.38334,0.21823
3390.45476,0.21851
3388.52617,0.21877
3386.59758,0.21904
3384.66900,0.21940
3382.74041,0.21966
3380.81183,0.21976
3378.88324,0.22005
3376.95465,0.22027
3375.02607,0.22033
3373.09748,0.22045
3371.16889,0.22060
3369.24031,0.22087
3367.31172,0.22113
3365.38314,0.22127
3363.45455,0.22149
3361.52596,0.22172
3359.59738,0.22196
3357.66879,0.22218
3355.74020,0.22228
3353.81162,0.22229
3351.88303,0.22227
3349.95444,0.22228
3348.02586,0.22244
3346.09727,0.22261
3344.16869,0.22265
3342.24010,0.22270
3340.31151,0.22276
3338.38293,0.22277
3336.45434,0.22276
3334.52575,0.22276
3332.59717,0.22277
3330.66858,0.22283
3328.73999,0.22289
3326.81141,0.22287
3324.88282,0.22278
3322.95424,0.22262
3321.02565,0.22248
3319.09706,0.22227
3317.16848,0.22205
3315.23989,0.22201
3313.31130,0.22202
3311.38272,0.22196
3309.45413,0.22179
3307.52555,0.22158
3305.59696,0.22137
3303.66837,0.22122
3301.73979,0.22104
3299.81120,0.22078
3297.88261,0.22063
3295.95403,0.22042
3294.02544,0.22012
3292.09685,0.21975
3290.16827,0.21928
3288.23968,0.21896
3286.31110,0.21869
3284.38251,0.21830
3282.45392,0.21776
3280.52534,0.21719
3278.59675,0.21658
3276.66816,0.21591
3274.73958,0.21530
3272.81099,0.21467
3270.88241,0.21396
3268.95382,0.21311
3267.02523,0.21219
3265.09665,0.21127
3263.16806,0.21038
3261.23947,0.20965
3259.31089,0.20893
3257.38230,0.20793
3255.45371,0.20676
3253.52513,0.20575
3251.59654,0.20499
3249.66796,0.20416
3247.73937,0.20317
3245.81078,0.20232
3243.88220,0.20148
3241.95361,0.20053
3240.02502,0.19971
3238.09644,0.19893
3236.16785,0.19811
3234.23927,0.19731
3232.31068,0.19657
3230.38209,0.19589
3228.45351,0.19513
3226.52492,0.19425
3224.59633,0.19350
3222.66775,0.19285
3220.73916,0.19199
3218.81057,0.19109
3216.88199,0.19033
3214.95340,0.18953
3213.02482,0.18883
3211.09623,0.18818
3209.16764,0.18740
3207.23906,0.18652
3205.31047,0.18559
3203.38188,0.18473
3201.45330,0.18404
3199.52471,0.18345
3197.59612,0.18260
3195.66754,0.18159
3193.73895,0.18079
3191.81037,0.18004
3189.88178,0.17929
3187.95319,0.17846
3186.02461,0.17758
3184.09602,0.17675
3182.16743,0.17584
3180.23885,0.17498
3178.31026,0.17423
3176.38168,0.17341
3174.45309,0.17242
3172.52450,0.17149
3170.59592,0.17070
3168.66733,0.16984
3166.73874,0.16898
3164.81016,0.16816
3162.88157,0.16737
3160.95298,0.16657
3159.02440,0.16578
3157.09581,0.16506
3155.16723,0.16433
3153.23864,0.16362
3151.31005,0.16297
3149.38147,0.16235
3147.45288,0.16161
3145.52429,0.16078
3143.59571,0.16000
3141.66712,0.15928
3139.73854,0.15867
3137.80995,0.15802
3135.88136,0.15744
3133.95278,0.15691
3132.02419,0.15627
3130.09560,0.15564
3128.16702,0.15502
3126.23843,0.15458
3124.30984,0.15421
3122.38126,0.15372
3120.45267,0.15322
3118.52409,0.15264
3116.59550,0.15213
3114.66691,0.15172
3112.73833,0.15140
3110.80974,0.15108
3108.88115,0.15061
3106.95257,0.15017
3105.02398,0.14983
3103.09540,0.14958
3101.16681,0.14923
3099.23822,0.14873
3097.30964,0.14830
3095.38105,0.14795
3093.45246,0.14770
3091.52388,0.14741
3089.59529,0.14698
3087.66670,0.14663
3085.73812,0.14626
3083.80953,0.14581
3081.88095,0.14527
3079.95236,0.14472
3078.02377,0.14430
3076.09519,0.14379
3074.16660,0.14341
3072.23801,0.14318
3070.30943,0.14263
3068.38084,0.14189
3066.45225,0.14133
3064.52367,0.14084
3062.59508,0.14017
3060.66650,0.13941
3058.73791,0.13873
3056.80932,0.13813
3054.88074,0.13757
3052.95215,0.13706
3051.02356,0.13644
3049.09498,0.13563
3047.16639,0.13487
3045.23781,0.13428
3043.30922,0.13380
3041.38063,0.13330
3039.45205,0.13263
3037.52346,0.13202
3035.59487,0.13157
3033.66629,0.13106
3031.73770,0.13058
3029.80911,0.13020
3027.88053,0.12985
3025.95194,0.12946
3024.02336,0.12903
3022.09477,0.12865
3020.16618,0.12844
3018.23760,0.12831
3016.30901,0.12818
3014.38042,0.12812
3012.45184,0.12816
3010.52325,0.12832
3008.59467,0.12854
3006.66608,0.12875
3004.73749,0.12901
3002.80891,0.12940
3000.88032,0.13006
2998.95173,0.13066
2997.02315,0.13128
2995.09456,0.13216
2993.16597,0.13315
2991.23739,0.13418
2989.30880,0.13523
2987.38022,0.13650
2985.45163,0.13801
2983.52304,0.13972
2981.59446,0.14161
2979.66587,0.14363
2977.73728,0.14583
2975.80870,0.14806
2973.88011,0.15038
2971.95153,0.15281
2970.02294,0.15531
2968.09435,0.15801
2966.16577,0.16076
2964.23718,0.16355
2962.30859,0.16632
2960.38001,0.16894
2958.45142,0.17138
2956.52283,0.17348
2954.59425,0.17527
2952.66566,0.17709
2950.73708,0.17929
2948.80849,0.18184
2946.87990,0.18482
2944.95132,0.18860
2943.02273,0.19306
2941.09414,0.19790
2939.16556,0.20323
2937.23697,0.20897
2935.30838,0.21468
2933.37980,0.22021
2931.45121,0.22558
2929.52263,0.23063
2927.59404,0.23507
2925.66545,0.23856
2923.73687,0.24094
2921.80828,0.24204
2919.87969,0.24125
2917.95111,0.23717
2916.02252,0.22893
2914.09394,0.21796
2912.16535,0.20707
2910.23676,0.19824
2908.30818,0.19159
2906.37959,0.18636
2904.45100,0.18192
2902.52242,0.17805
2900.59383,0.17471
2898.66524,0.17154
2896.73666,0.16832
2894.80807,0.16524
2892.87949,0.16238
2890.95090,0.15968
2889.02231,0.15708
2887.09373,0.15473
2885.16514,0.15272
2883.23655,0.15101
2881.30797,0.14969
2879.37938,0.14871
2877.45080,0.14805
2875.52221,0.14782
2873.59362,0.14807
2871.66504,0.14852
2869.73645,0.14895
2867.80786,0.14967
2865.87928,0.15109
2863.95069,0.15360
2862.02210,0.15757
2860.09352,0.16299
2858.16493,0.16955
2856.23635,0.17645
2854.30776,0.18210
2852.37917,0.18479
2850.45059,0.18261
2848.52200,0.17416
2846.59341,0.16153
2844.66483,0.14878
2842.73624,0.13782
2840.80766,0.12891
2838.87907,0.12203
2836.95048,0.11657
2835.02190,0.11204
2833.09331,0.10830
2831.16472,0.10518
2829.23614,0.10256
2827.30755,0.10027
2825.37896,0.09818
2823.45038,0.09635
2821.52179,0.09465
2819.59321,0.09303
2817.66462,0.09168
2815.73603,0.09044
2813.80745,0.08916
2811.87886,0.08797
2809.95027,0.08689
2808.02169,0.08589
2806.09310,0.08491
2804.16451,0.08391
2802.23593,0.08303
2800.30734,0.08220
2798.37876,0.08130
2796.45017,0.08047
2794.52158,0.07970
2792.59300,0.07892
2790.66441,0.07825
2788.73582,0.07765
2786.80724,0.07700
2784.87865,0.07631
2782.95007,0.07563
2781.02148,0.07497
2779.09289,0.07440
2777.16431,0.07388
2775.23572,0.07334
2773.30713,0.07281
2771.37855,0.07225
2769.44996,0.07178
2767.52137,0.07132
2765.59279,0.07086
2763.66420,0.07050
2761.73562,0.07001
2759.80703,0.06952
2757.87844,0.06918
2755.94986,0.06877
2754.02127,0.06838
2752.09268,0.06806
2750.16410,0.06776
2748.23551,0.06741
2746.30693,0.06701
2744.37834,0.06676
2742.44975,0.06648
2740.52117,0.06606
2738.59258,0.06570
2736.66399,0.06544
2734.73541,0.06514
2732.80682,0.06482
2730.87823,0.06447
2728.94965,0.06395
2727.02106,0.06349
2725.09248,0.06311
2723.16389,0.06269
2721.23530,0.06229
2719.30672,0.06191
2717.37813,0.06152
2715.44954,0.06111
2713.52096,0.06072
2711.59237,0.06026
2709.66379,0.05981
2707.73520,0.05952
2705.80661,0.05903
2703.87803,0.05851
2701.94944,0.05822
2700.02085,0.05800
2698.09227,0.05777
2696.16368,0.05746
2694.23509,0.05716
2692.30651,0.05678
2690.37792,0.05637
2688.44934,0.05617
2686.52075,0.05595
2684.59216,0.05561
2682.66358,0.05528
2680.73499,0.05497
2678.80640,0.05473
2676.87782,0.05449
2674.94923,0.05417
2673.02064,0.05382
2671.09206,0.05350
2669.16347,0.05311
2667.23489,0.05275
2665.30630,0.05255
2663.37771,0.05232
2661.44913,0.05196
2659.52054,0.05162
2657.59195,0.05135
2655.66337,0.05106
2653.73478,0.05071
2651.80620,0.05043
2649.87761,0.05022
2647.94902,0.04996
2646.02044,0.04961
2644.09185,0.04926
2642.16326,0.04899
2640.23468,0.04874
2638.30609,0.04845
2636.37750,0.04813
2634.44892,0.04782
2632.52033,0.04749
2630.59175,0.04720
2628.66316,0.04696
2626.73457,0.04667
2624.80599,0.04634
2622.87740,0.04601
2620.94881,0.04573
2619.02023,0.04548
2617.09164,0.04516
2615.16306,0.04483
2613.23447,0.04446
2611.30588,0.04411
2609.37730,0.04387
2607.44871,0.04359
2605.52012,0.04322
2603.59154,0.04295
2601.66295,0.04272
2599.73436,0.04243
2597.80578,0.04214
2595.87719,0.04182
2593.94861,0.04145
2592.02002,0.04106
2590.09143,0.04070
2588.16285,0.04046
2586.23426,0.04025
2584.30567,0.03997
2582.37709,0.03966
2580.44850,0.03933
2578.51991,0.03899
2576.59133,0.03865
2574.66274,0.03838
2572.73416,0.03819
2570.80557,0.03792
2568.87698,0.03758
2566.94840,0.03734
2565.01981,0.03718
2563.09122,0.03689
2561.16264,0.03649
2559.23405,0.03624
2557.30547,0.03605
2555.37688,0.03574
2553.44829,0.03540
2551.51971,0.03513
2549.59112,0.03492
2547.66253,0.03474
2545.73395,0.03450
2543.80536,0.03427
2541.87677,0.03414
2539.94819,0.03391
2538.01960,0.03359
2536.09102,0.03329
2534.16243,0.03305
2532.23384,0.03285
2530.30526,0.03254
2528.37667,0.03217
2526.44808,0.03187
2524.51950,0.03167
2522.59091,0.03148
2520.66233,0.03122
2518.73374,0.03091
2516.80515,0.03067
2514.87657,0.03045
2512.94798,0.03010
2511.01939,0.02980
2509.09081,0.02962
2507.16222,0.02937
2505.23363,0.02915
2503.30505,0.02886
2501.37646,0.02849
2499.44788,0.02821
2497.51929,0.02795
2495.59070,0.02768
2493.66212,0.02735
2491.73353,0.02697
2489.80494,0.02673
2487.87636,0.02651
2485.94777,0.02620
2484.01919,0.02593
2482.09060,0.02573
2480.16201,0.02548
2478.23343,0.02522
2476.30484,0.02496
2474.37625,0.02465
2472.44767,0.02432
2470.51908,0.02398
2468.59049,0.02365
2466.66191,0.02346
2464.73332,0.02329
2462.80474,0.02300
2460.87615,0.02259
2458.94756,0.02226
2457.01898,0.02204
2455.09039,0.02182
2453.16180,0.02158
2451.23322,0.02129
2449.30463,0.02102
2447.37604,0.02076
2445.44746,0.02044
2443.51887,0.02021
2441.59029,0.02000
2439.66170,0.01981
2437.73311,0.01954
2435.80453,0.01920
2433.87594,0.01897
2431.94735,0.01875
2430.01877,0.01851
2428.09018,0.01825
2426.16160,0.01799
2424.23301,0.01773
2422.30442,0.01745
2420.37584,0.01724
2418.44725,0.01704
2416.51866,0.01672
2414.59008,0.01640
2412.66149,0.01616
2410.73290,0.01588
2408.80432,0.01558
2406.87573,0.01536
2404.94715,0.01517
2403.01856,0.01497
2401.08997,0.01471
2399.16139,0.01443
2397.23280,0.01419
2395.30421,0.01392
2393.37563,0.01365
2391.44704,0.01341
2389.51846,0.01322
2387.58987,0.01307
2385.66128,0.01293
2383.73270,0.01273
2381.80411,0.01253
2379.87552,0.01234
2377.94694,0.01217
2376.01835,0.01201
2374.08976,0.01183
2372.16118,0.01164
2370.23259,0.01146
2368.30401,0.01133
2366.37542,0.01126
2364.44683,0.01113
2362.51825,0.01091
2360.58966,0.01066
2358.66107,0.01050
2356.73249,0.01034
2354.80390,0.01009
2352.87532,0.00978
2350.94673,0.00946
2349.01814,0.00932
2347.08956,0.00933
2345.16097,0.00936
2343.23238,0.00927
2341.30380,0.00919
2339.37521,0.00922
2337.44662,0.00909
2335.51804,0.00878
2333.58945,0.00847
2331.66087,0.00822
2329.73228,0.00802
2327.80369,0.00783
2325.87511,0.00769
2323.94652,0.00752
2322.01793,0.00731
2320.08935,0.00712
2318.16076,0.00698
2316.23217,0.00683
2314.30359,0.00666
2312.37500,0.00651
2310.44642,0.00634
2308.51783,0.00616
2306.58924,0.00597
2304.66066,0.00583
2302.73207,0.00568
2300.80348,0.00547
2298.87490,0.00533
2296.94631,0.00518
2295.01773,0.00504
2293.08914,0.00493
2291.16055,0.00477
2289.23197,0.00466
2287.30338,0.00453
2285.37479,0.00435
2283.44621,0.00419
2281.51762,0.00407
2279.58903,0.00397
2277.66045,0.00391
2275.73186,0.00385
2273.80328,0.00374
2271.87469,0.00363
2269.94610,0.00343
2268.01752,0.00324
2266.08893,0.00311
2264.16034,0.00298
2262.23176,0.00292
2260.30317,0.00286
2258.37459,0.00280
2256.44600,0.00269
2254.51741,0.00260
2252.58883,0.00257
2250.66024,0.00250
2248.73165,0.00241
2246.80307,0.00234
2244.87448,0.00229
2242.94589,0.00227
2241.01731,0.00216
2239.08872,0.00194
2237.16014,0.00176
2235.23155,0.00176
2233.30296,0.00179
2231.37438,0.00173
2229.44579,0.00168
2227.51720,0.00163
2225.58862,0.00154
2223.66003,0.00140
2221.73145,0.00122
2219.80286,0.00119
2217.87427,0.00126
2215.94569,0.00115
2214.01710,0.00093
2212.08851,0.00078
2210.15993,0.00072
2208.23134,0.00077
2206.30275,0.00080
2204.37417,0.00075
2202.44558,0.00065
2200.51700,0.00060
2198.58841,0.00061
2196.65982,0.00055
2194.73124,0.00043
2192.80265,0.00037
2190.87406,0.00040
2188.94548,0.00048
2187.01689,0.00044
2185.08830,0.00031
2183.15972,0.00030
2181.23113,0.00043
2179.30255,0.00048
2177.37396,0.00041
2175.44537,0.00031
2173.51679,0.00024
2171.58820,0.00016
2169.65961,0.00015
2167.73103,0.00027
2165.80244,0.00035
2163.87386,0.00032
2161.94527,0.00023
2160.01668,0.00019
2158.08810,0.00023
2156.15951,0.00030
2154.23092,0.00036
2152.30234,0.00032
2150.37375,0.00027
2148.44516,0.00036
2146.51658,0.00042
2144.58799,0.00037
2142.65941,0.00031
2140.73082,0.00032
2138.80223,0.00033
2136.87365,0.00031
2134.94506,0.00027
2133.01647,0.00027
2131.08789,0.00034
2129.15930,0.00039
2127.23072,0.00035
2125.30213,0.00021
2123.37354,0.00009
2121.44496,0.00004
2119.51637,0.00005
2117.58778,0.00008
2115.65920,0.00006
2113.73061,0.00001
2111.80202,0.00001
2109.87344,0.00006
2107.94485,0.00008
2106.01627,0.00003
2104.08768,-0.00002
2102.15909,0.00001
2100.23051,0.00008
2098.30192,0.00011
2096.37333,0.00006
2094.44475,0.00002
2092.51616,0.00004
2090.58758,0.00004
2088.65899,0.00002
2086.73040,0.00001
2084.80182,0.00000
2082.87323,0.00005
2080.94464,0.00006
2079.01606,0.00000
2077.08747,-0.00001
2075.15888,0.00004
2073.23030,0.00009
2071.30171,0.00010
2069.37313,0.00007
2067.44454,0.00008
2065.51595,0.00014
2063.58737,0.00016
2061.65878,0.00016
2059.73019,0.00018
2057.80161,0.00015
2055.87302,0.00008
2053.94443,0.00015
2052.01585,0.00025
2050.08726,0.00026
2048.15868,0.00031
2046.23009,0.00046
2044.30150,0.00055
2042.37292,0.00057
2040.44433,0.00072
2038.51574,0.00092
2036.58716,0.00108
2034.65857,0.00127
2032.72999,0.00149
2030.80140,0.00168
2028.87281,0.00171
2026.94423,0.00175
2025.01564,0.00176
2023.08705,0.00172
2021.15847,0.00179
2019.22988,0.00188
2017.30129,0.00195
2015.37271,0.00202
2013.44412,0.00217
2011.51554,0.00234
2009.58695,0.00248
2007.65836,0.00262
2005.72978,0.00271
2003.80119,0.00278
2001.87260,0.00278
1999.94402,0.00279
1998.01543,0.00286
1996.08685,0.00284
1994.15826,0.00275
1992.22967,0.00270
1990.30109,0.00268
1988.37250,0.00265
1986.44391,0.00256
1984.51533,0.00246
1982.58674,0.00242
1980.65815,0.00238
1978.72957,0.00222
1976.80098,0.00210
1974.87240,0.00206
1972.94381,0.00201
1971.01522,0.00192
1969.08664,0.00174
1967.15805,0.00150
1965.22946,0.00135
1963.30088,0.00123
1961.37229,0.00109
1959.44371,0.00094
1957.51512,0.00078
1955.58653,0.00073
1953.65795,0.00072
1951.72936,0.00064
1949.80077,0.00056
1947.87219,0.00048
1945.94360,0.00043
1944.01501,0.00041
1942.08643,0.00034
1940.15784,0.00020
1938.22926,0.00013
1936.30067,0.00007
1934.37208,0.00000
1932.44350,0.00004
1930.51491,-0.00003
1928.58632,-0.00010
1926.65774,-0.00005
1924.72915,0.00000
1922.80056,0.00002
1920.87198,0.00006
1918.94339,0.00017
1917.01481,0.00028
1915.08622,0.00046
1913.15763,0.00080
1911.22905,0.00116
1909.30046,0.00150
1907.37187,0.00186
1905.44329,0.00229
1903.51470,0.00273
1901.58612,0.00319
1899.65753,0.00365
1897.72894,0.00406
1895.80036,0.00452
1893.87177,0.00487
1891.94318,0.00519
1890.01460,0.00557
1888.08601,0.00581
1886.15742,0.00604
1884.22884,0.00630
1882.30025,0.00652
1880.37167,0.00664
1878.44308,0.00673
1876.51449,0.00682
1874.58591,0.00684
1872.65732,0.00688
1870.72873,0.00691
1868.80015,0.00686
1866.87156,0.00665
1864.94298,0.00624
1863.01439,0.00572
1861.08580,0.00514
1859.15722,0.00458
1857.22863,0.00400
1855.30004,0.00340
1853.37146,0.00275
1851.44287,0.00211
1849.51428,0.00159
1847.58570,0.00115
1845.65711,0.00090
1843.72853,0.00063
1841.79994,0.00024
1839.87135,0.00000
1837.94277,-0.00022
1836.01418,-0.00038
1834.08559,-0.00045
1832.15701,-0.00034
1830.22842,-0.00013
1828.29984,0.00001
1826.37125,0.00019
1824.44266,0.00044
1822.51408,0.00073
1820.58549,0.00117
1818.65690,0.00168
1816.72832,0.00225
1814.79973,0.00290
1812.87114,0.00363
1810.94256,0.00456
1809.01397,0.00559
1807.08539,0.00664
1805.15680,0.00781
1803.22821,0.00919
1801.29963,0.01071
1799.37104,0.01222
1797.44245,0.01387
1795.51387,0.01565
1793.58528,0.01768
1791.65669,0.01974
1789.72811,0.02162
1787.79952,0.02380
1785.87094,0.02610
1783.94235,0.02832
1782.01376,0.03063
1780.08518,0.03297
1778.15659,0.03521
1776.22800,0.03730
1774.29942,0.03960
1772.37083,0.04187
1770.44225,0.04380
1768.51366,0.04566
1766.58507,0.04755
1764.65649,0.04954
1762.72790,0.05164
1760.79931,0.05384
1758.87073,0.05624
1756.94214,0.05888
1755.01355,0.06167
1753.08497,0.06483
1751.15638,0.06847
1749.22780,0.07224
1747.29921,0.07625
1745.37062,0.08052
1743.44204,0.08502
1741.51345,0.08981
1739.58486,0.09457
1737.65628,0.09886
1735.72769,0.10288
1733.79911,0.10662
1731.87052,0.10963
1729.94193,0.11246
1728.01335,0.11535
1726.08476,0.11827
1724.15617,0.12129
1722.22759,0.12427
1720.29900,0.12749
1718.37041,0.13074
1716.44183,0.13365
1714.51324,0.13621
1712.58466,0.13862
1710.65607,0.14092
1708.72748,0.14295
1706.79890,0.14500
1704.87031,0.14704
1702.94172,0.14929
1701.01314,0.15194
1699.08455,0.15440
1697.15596,0.15694
1695.22738,0.15953
1693.29879,0.16182
1691.37021,0.16434
1689.44162,0.16710
1687.51303,0.16995
1685.58445,0.17308
1683.65586,0.17593
1681.72727,0.17861
1679.79869,0.18150
1677.87010,0.18432
1675.94152,0.18718
1674.01293,0.18982
1672.08434,0.19228
1670.15576,0.19459
1668.22717,0.19659
1666.29858,0.19838
1664.37000,0.20016
1662.44141,0.20168
1660.51282,0.20259
1658.58424,0.20326
1656.65565,0.20385
1654.72707,0.20461
1652.79848,0.20475
1650.86989,0.20424
1648.94131,0.20418
1647.01272,0.20394
1645.08413,0.20348
1643.15555,0.20321
1641.22696,0.20306
1639.29838,0.20303
1637.36979,0.20323
1635.44120,0.20330
1633.51262,0.20280
1631.58403,0.20223
1629.65544,0.20142
1627.72686,0.20016
1625.79827,0.19859
1623.86968,0.19676
1621.94110,0.19462
1620.01251,0.19254
1618.08393,0.19081
1616.15534,0.18864
1614.22675,0.18648
1612.29817,0.18468
1610.36958,0.18288
1608.44099,0.18122
1606.51241,0.17974
1604.58382,0.17834
1602.65524,0.17679
1600.72665,0.17538
1598.79806,0.17399
1596.86948,0.17243
1594.94089,0.17087
1593.01230,0.16925
1591.08372,0.16748
1589.15513,0.16550
1587.22654,0.16345
1585.29796,0.16132
1583.36937,0.15919
1581.44079,0.15706
1579.51220,0.15526
1577.58361,0.15375
1575.65503,0.15193
1573.72644,0.15024
1571.79785,0.14914
1569.86927,0.14832
1567.94068,0.14743
1566.01209,0.14680
1564.08351,0.14648
1562.15492,0.14638
1560.22634,0.14671
1558.29775,0.14668
1556.36916,0.14647
1554.44058,0.14651
1552.51199,0.14641
1550.58340,0.14637
1548.65482,0.14619
1546.72623,0.14586
1544.79765,0.14554
1542.86906,0.14524
1540.94047,0.14494
1539.01189,0.14391
1537.08330,0.14265
1535.15471,0.14177
1533.22613,0.14072
1531.29754,0.13937
1529.36895,0.13820
1527.44037,0.13703
1525.51178,0.13587
1523.58320,0.13526
1521.65461,0.13494
1519.72602,0.13474
1517.79744,0.13461
1515.86885,0.13391
1513.94026,0.13230
1512.01168,0.13004
1510.08309,0.12761
1508.15451,0.12518
1506.22592,0.12194
1504.29733,0.11804
1502.36875,0.11433
1500.44016,0.11064
1498.51157,0.10699
1496.58299,0.10335
1494.65440,0.09974
1492.72581,0.09685
1490.79723,0.09451
1488.86864,0.09232
1486.94006,0.09066
1485.01147,0.08965
1483.08288,0.08932
1481.15430,0.08975
1479.22571,0.09101
1477.29712,0.09327
1475.36854,0.09675
1473.43995,0.10178
1471.51137,0.10802
1469.58278,0.11438
1467.65419,0.11975
1465.72561,0.12296
1463.79702,0.12439
1461.86843,0.12501
1459.93985,0.12562
1458.01126,0.12680
1456.08267,0.12756
1454.15409,0.12746
1452.22550,0.12705
1450.29692,0.12655
1448.36833,0.12608
1446.43974,0.12557
1444.51116,0.12520
1442.58257,0.12497
1440.65398,0.12480
1438.72540,0.12483
1436.79681,0.12485
1434.86822,0.12472
1432.93964,0.12472
1431.01105,0.12476
1429.08247,0.12487
1427.15388,0.12518
1425.22529,0.12555
1423.29671,0.12591
1421.36812,0.12632
1419.43953,0.12663
1417.51095,0.12656
1415.58236,0.12638
1413.65378,0.12610
1411.72519,0.12554
1409.79660,0.12506
1407.86802,0.12456
1405.93943,0.12406
1404.01084,0.12337
1402.08226,0.12238
1400.15367,0.12142
1398.22508,0.12048
1396.29650,0.11960
1394.36791,0.11879
1392.43933,0.11812
1390.51074,0.11770
1388.58215,0.11757
1386.65357,0.11734
1384.72498,0.11700
1382.79639,0.11749
1380.86781,0.11843
1378.93922,0.11883
1377.01064,0.11859
1375.08205,0.11787
1373.15346,0.11682
1371.22488,0.11544
1369.29629,0.11412
1367.36770,0.11285
1365.43912,0.11140
1363.51053,0.10990
1361.58194,0.10839
1359.65336,0.10712
1357.72477,0.10612
1355.79619,0.10524
1353.86760,0.10442
1351.93901,0.10357
1350.01043,0.10274
1348.08184,0.10199
1346.15325,0.10137
1344.22467,0.10072
1342.29608,0.10005
1340.36750,0.09961
1338.43891,0.09911
1336.51032,0.09851
1334.58174,0.09799
1332.65315,0.09748
1330.72456,0.09709
1328.79598,0.09677
1326.86739,0.09636
1324.93880,0.09589
1323.01022,0.09544
1321.08163,0.09512
1319.15305,0.09479
1317.22446,0.09445
1315.29587,0.09420
1313.36729,0.09381
1311.43870,0.09332
1309.51011,0.09293
1307.58153,0.09264
1305.65294,0.09243
1303.72435,0.09219
1301.79577,0.09197
1299.86718,0.09199
1297.93860,0.09217
1296.01001,0.09249
1294.08142,0.09294
1292.15284,0.09356
1290.22425,0.09447
1288.29566,0.09561
1286.36708,0.09692
1284.43849,0.09840
1282.50991,0.10004
1280.58132,0.10168
1278.65273,0.10334
1276.72415,0.10513
1274.79556,0.10700
1272.86697,0.10883
1270.93839,0.11055
1269.00980,0.11243
1267.08121,0.11449
1265.15263,0.11662
1263.22404,0.11904
1261.29546,0.12176
1259.36687,0.12495
1257.43828,0.12863
1255.50970,0.13285
1253.58111,0.13762
1251.65252,0.14260
1249.72394,0.14768
1247.79535,0.15276
1245.86677,0.15783
1243.93818,0.16272
1242.00959,0.16716
1240.08101,0.17112
1238.15242,0.17458
1236.22383,0.17799
1234.29525,0.18130
1232.36666,0.18400
1230.43807,0.18646
1228.50949,0.18910
1226.58090,0.19175
1224.65232,0.19406
1222.72373,0.19602
1220.79514,0.19794
1218.86656,0.19990
1216.93797,0.20184
1215.00938,0.20381
1213.08080,0.20581
1211.15221,0.20769
1209.22363,0.20951
1207.29504,0.21146
1205.36645,0.21332
1203.43787,0.21484
1201.50928,0.21638
1199.58069,0.21797
1197.65211,0.21938
1195.72352,0.22067
1193.79493,0.22195
1191.86635,0.22333
1189.93776,0.22487
1188.00918,0.22661
1186.08059,0.22826
1184.15200,0.22986
1182.22342,0.23181
1180.29483,0.23391
1178.36624,0.23620
1176.43766,0.23878
1174.50907,0.24141
1172.58048,0.24395
1170.65190,0.24675
1168.72331,0.24979
1166.79473,0.25250
1164.86614,0.25517
1162.93755,0.25791
1161.00897,0.25997
1159.08038,0.26130
1157.15179,0.26257
1155.22321,0.26383
1153.29462,0.26496
1151.36604,0.26641
1149.43745,0.26824
1147.50886,0.27034
1145.58028,0.27253
1143.65169,0.27505
1141.72310,0.27833
1139.79452,0.28175
1137.86593,0.28519
1135.93734,0.28895
1134.00876,0.29283
1132.08017,0.29677
1130.15159,0.30092
1128.22300,0.30602
1126.29441,0.31192
1124.36583,0.31738
1122.43724,0.32241
1120.50865,0.32783
1118.58007,0.33393
1116.65148,0.34043
1114.72290,0.34675
1112.79431,0.35300
1110.86572,0.35914
1108.93714,0.36471
1107.00855,0.36999
1105.07996,0.37457
1103.15138,0.37807
1101.22279,0.38093
1099.29420,0.38282
1097.36562,0.38343
1095.43703,0.38347
1093.50845,0.38337
1091.57986,0.38272
1089.65127,0.38155
1087.72269,0.37987
1085.79410,0.37804
1083.86551,0.37663
1081.93693,0.37518
1080.00834,0.37349
1078.07976,0.37155
1076.15117,0.36942
1074.22258,0.36764
1072.29400,0.36602
1070.36541,0.36438
1068.43682,0.36302
1066.50824,0.36186
1064.57965,0.36060
1062.65106,0.35908
1060.72248,0.35731
1058.79389,0.35530
1056.86531,0.35301
1054.93672,0.35064
1053.00813,0.34866
1051.07955,0.34713
1049.15096,0.34596
1047.22237,0.34542
1045.29379,0.34562
1043.36520,0.34658
1041.43661,0.34797
1039.50803,0.34895
1037.57944,0.34965
1035.65086,0.35022
1033.72227,0.35000
1031.79368,0.34928
1029.86510,0.34755
1027.93651,0.34434
1026.00792,0.34090
1024.07934,0.33756
1022.15075,0.33395
1020.22217,0.33025
1018.29358,0.32664
1016.36499,0.32327
1014.43641,0.32003
1012.50782,0.31670
1010.57923,0.31302
1008.65065,0.30903
1006.72206,0.30485
1004.79347,0.30053
1002.86489,0.29593
1000.93630,0.29051
999.00772,0.28450
997.07913,0.27884
995.15054,0.27340
993.22196,0.26762
991.29337,0.26154
989.36478,0.25541
987.43620,0.24910
985.50761,0.24199
983.57903,0.23419
981.65044,0.22617
979.72185,0.21772
977.79327,0.20894
975.86468,0.20008
973.93609,0.19104
972.00751,0.18197
970.07892,0.17312
968.15033,0.16488
966.22175,0.15707
964.29316,0.14949
962.36458,0.14270
960.43599,0.13688
958.50740,0.13189
956.57882,0.12762
954.65023,0.12385
952.72164,0.12052
950.79306,0.11754
948.86447,0.11480
946.93589,0.11240
945.00730,0.11023
943.07871,0.10834
941.15013,0.10701
939.22154,0.10573
937.29295,0.10432
935.36437,0.10300
933.43578,0.10143
931.50719,0.10002
929.57861,0.09905
927.65002,0.09824
925.72144,0.09746
923.79285,0.09660
921.86426,0.09574
919.93568,0.09513
918.00709,0.09480
916.07850,0.09441
914.14992,0.09346
912.22133,0.09152
910.29274,0.08874
908.36416,0.08503
906.43557,0.08019
904.50699,0.07492
902.57840,0.06953
900.64981,0.06387
898.72123,0.05844
896.79264,0.05379
894.86405,0.04959
892.93547,0.04562
891.00688,0.04204
889.07830,0.03862
887.14971,0.03549
885.22112,0.03238
883.29254,0.02956
881.36395,0.02700
879.43536,0.02398
877.50678,0.02120
875.57819,0.01876
873.64960,0.01642
871.72102,0.01381
869.79243,0.01106
867.86385,0.00906
865.93526,0.00690
864.00667,0.00453
862.07809,0.00295
860.14950,0.00192
858.22091,0.00084
856.29233,0.00000
854.36374,0.00001
852.43516,0.00033
850.50657,0.00056
848.57798,0.00110
846.64940,0.00228
844.72081,0.00386
842.79222,0.00580
840.86364,0.00865
838.93505,0.01186
837.00646,0.01525
835.07788,0.01867
833.14929,0.02190
831.22071,0.02480
829.29212,0.02661
827.36353,0.02776
825.43495,0.02849
823.50636,0.02908
821.57777,0.02994
819.64919,0.03092
817.72060,0.03211
815.79201,0.03317
813.86343,0.03461
811.93484,0.03747
810.00626,0.04163
808.07767,0.04656
806.14908,0.05246
804.22050,0.05862
802.29191,0.06302
800.36332,0.06533
798.43474,0.06532
796.50615,0.06241
794.57757,0.05797
792.64898,0.05347
790.72039,0.04956
788.79181,0.04681
786.86322,0.04525
784.93463,0.04446
783.00605,0.04502
781.07746,0.04588
779.14887,0.04423
777.22029,0.04019
775.29170,0.03497
773.36312,0.02957
771.43453,0.02511
769.50594,0.02192
767.57736,0.02035
765.64877,0.01953
763.72018,0.01881
761.79160,0.01854
759.86301,0.01845
757.93443,0.01843
756.00584,0.01826
754.07725,0.01787
752.14867,0.01732
750.22008,0.01635
748.29149,0.01518
746.36291,0.01415
744.43432,0.01316
742.50573,0.01152
740.57715,0.00899
738.64856,0.00616
736.71998,0.00415
734.79139,0.00363
732.86280,0.00335
730.93422,0.00300
729.00563,0.00293
727.07704,0.00270
725.14846,0.00301
723.21987,0.00369
721.29129,0.00365
719.36270,0.00303
717.43411,0.00217
715.50553,0.00115
713.57694,0.00040
711.64835,0.00038
709.71977,0.00072
707.79118,0.00129
705.86259,0.00295
703.93401,0.00557
702.00542,0.00788
700.07684,0.01098
698.14825,0.01549
696.21966,0.01827
694.29108,0.01802
692.36249,0.01573
690.43390,0.01258
688.50532,0.01030
686.57673,0.00869
684.64814,0.00691
682.71956,0.00530
680.79097,0.00436
678.86239,0.00364
676.93380,0.00281
675.00521,0.00258
673.07663,0.00241
671.14804,0.00184
669.21945,0.00180
667.29087,0.00181
665.36228,0.00067
663.43370,0.00000
661.50511,0.00067
659.57652,0.00083
657.64794,0.00067
655.71935,0.00117
653.79076,0.00175
651.86218,0.00259
649.93359,0.00349
648.00500,0.00367
646.07642,0.00310
644.14783,0.00317
642.21925,0.00397
640.29066,0.00420
638.36207,0.00425
636.43349,0.00451
634.50490,0.00486
632.57631,0.00491
630.64773,0.00489
628.71914,0.00529
626.79056,0.00577
624.86197,0.00690
622.93338,0.00833
621.00480,0.00910
619.07621,0.00939
617.14762,0.00991
615.21904,0.01016
613.29045,0.01024
611.36186,0.01200
609.43328,0.01329
607.50469,0.01338
605.57611,0.01468
603.64752,0.01619
601.71893,0.01767
599.79035,0.01915
597.86176,0.02044
595.93317,0.02140
594.00459,0.02199
592.07600,0.02444
590.14742,0.02871
588.21883,0.03390
586.29024,0.03875
584.36166,0.04184
582.43307,0.04516
580.50448,0.04853
578.57590,0.05161
576.64731,0.05616
574.71872,0.05992
572.79014,0.06170
570.86155,0.06600
568.93297,0.07265
567.00438,0.07725
565.07579,0.08183
563.14721,0.08644
561.21862,0.08985
559.29003,0.09506
557.36145,0.09989
555.43286,0.10315
553.50427,0.10662
551.57569,0.11029
549.64710,0.11466
547.71852,0.11870
545.78993,0.12146
543.86134,0.12459
541.93276,0.13079
540.00417,0.13744
538.07558,0.14143
536.14700,0.14505
534.21841,0.14875
532.28983,0.15230
530.36124,0.15383
528.43265,0.15197
526.50407,0.14990
524.57548,0.14889
522.64689,0.14576
520.71831,0.13981
518.78972,0.13500
516.86113,0.12971
514.93255,0.12471
513.00396,0.12109
511.07538,0.11489
509.14679,0.11064
507.21820,0.11007
505.28962,0.11074
503.36103,0.11300
501.43244,0.11518
499.50386,0.11695
497.57527,0.12143
495.64669,0.12985
493.71810,0.13906
491.78951,0.15048
489.86093,0.16167
487.93234,0.17048
486.00375,0.18273
484.07517,0.19546
482.14658,0.20773
480.21799,0.21992
478.28941,0.22758
476.36082,0.23335
474.43224,0.23964
472.50365,0.24072
470.57506,0.23682
468.64648,0.23246
466.71789,0.22186
464.78930,0.20845
462.86072,0.19635
460.93213,0.18446
459.00355,0.17276
457.07496,0.16095
455.14637,0.15079
453.21779,0.13740
451.28920,0.12604
449.36061,0.11982
447.43203,0.11291
445.50344,0.10656
443.57485,0.09926
441.64627,0.09043
439.71768,0.08583
437.78910,0.08850
435.86051,0.08838
433.93192,0.08273
432.00334,0.07789
430.07475,0.07469
428.14616,0.07229
426.21758,0.06559
424.28899,0.05924
422.36040,0.05540
420.43182,0.05294
418.50323,0.04902
416.57465,0.03776
414.64606,0.03080
412.71747,0.02749
410.78889,0.01894
408.86030,0.01672
406.93171,0.01841
405.00313,0.00529
403.07454,0.00000
401.14596,0.00547
399.21737,0.00000
