3747.24323,0.00050
3745.31464,0.00260
3743.38605,0.00003
3741.45747,0.00000
3739.52888,0.00290
3737.60030,0.00402
3735.67171,0.00379
3733.74312,0.00352
3731.81454,0.00385
3729.88595,0.00427
3727.95736,0.00575
3726.02878,0.00674
3724.10019,0.00718
3722.17161,0.00876
3720.24302,0.00988
3718.31443,0.01162
3716.38585,0.01360
3714.45726,0.01655
3712.52867,0.01946
3710.60009,0.02046
3708.67150,0.02299
3706.74291,0.02615
3704.81433,0.02990
3702.88574,0.03316
3700.95716,0.03483
3699.02857,0.03694
3697.09998,0.03835
3695.17140,0.03959
3693.24281,0.04060
3691.31422,0.04215
3689.38564,0.04326
3687.45705,0.04299
3685.52846,0.04519
3683.59988,0.04887
3681.67129,0.05241
3679.74271,0.05558
3677.81412,0.06002
3675.88553,0.06347
3673.95695,0.06520
3672.02836,0.07060
3670.09977,0.07486
3668.17119,0.07744
3666.24260,0.08227
3664.31402,0.08689
3662.38543,0.09129
3660.45684,0.09522
3658.52826,0.09953
3656.59967,0.10305
3654.67108,0.10529
3652.74250,0.10950
3650.81391,0.11319
3648.88532,0.11485
3646.95674,0.11664
3645.02815,0.11989
3643.09957,0.12353
3641.17098,0.12636
3639.24239,0.12911
3637.31381,0.13175
3635.38522,0.13457
3633.45663,0.13724
3631.52805,0.14067
3629.59946,0.14301
3627.67088,0.14238
3625.74229,0.14419
3623.81370,0.14680
3621.88512,0.14786
3619.95653,0.14777
3618.02794,0.14595
3616.09936,0.14529
3614.17077,0.14500
3612.24218,0.14419
3610.31360,0.14379
3608.38501,0.14276
3606.45643,0.14178
3604.52784,0.14170
3602.59925,0.14177
3600.67067,0.14132
3598.74208,0.14111
3596.81349,0.14126
3594.88491,0.14109
3592.95632,0.14092
3591.02774,0.14141
3589.09915,0.14195
3587.17056,0.14142
3585.24198,0.14128
3583.31339,0.14225
3581.38480,0.14315
3579.45622,0.14387
3577.52763,0.14455
3575.59904,0.14535
3573.67046,0.14614
3571.74187,0.14711
3569.81329,0.14844
3567.88470,0.14914
3565.95611,0.14932
3564.02753,0.15025
3562.09894,0.15179
3560.17035,0.15311
3558.24177,0.15419
3556.31318,0.15515
3554.38459,0.15606
3552.45601,0.15701
3550.52742,0.15804
3548.59884,0.15927
3546.67025,0.16024
3544.74166,0.16112
3542.81308,0.16218
3540.88449,0.16329
3538.95590,0.16451
3537.02732,0.16549
3535.09873,0.16642
3533.17015,0.16757
3531.24156,0.16868
3529.31297,0.16974
3527.38439,0.17088
3525.45580,0.17188
3523.52721,0.17268
3521.59863,0.17362
3519.67004,0.17460
3517.74145,0.17556
3515.81287,0.17654
3513.88428,0.17759
3511.95570,0.17864
3510.02711,0.17955
3508.09852,0.18043
3506.16994,0.18152
3504.24135,0.18263
3502.31276,0.18337
3500.38418,0.18417
3498.45559,0.18512
3496.52701,0.18599
3494.59842,0.18694
3492.66983,0.18787
3490.74125,0.18887
3488.81266,0.18963
3486.88407,0.19023
3484.95549,0.19104
3483.02690,0.19188
3481.09831,0.19261
3479.16973,0.19321
3477.24114,0.19400
3475.31256,0.19473
3473.38397,0.19539
3471.45538,0.19623
3469.52680,0.19682
3467.59821,0.19727
3465.66962,0.19795
3463.74104,0.19882
3461.81245,0.19946
3459.88386,0.20000
3457.95528,0.20075
3456.02669,0.20135
3454.09811,0.20181
3452.16952,0.20236
3450.24093,0.20306
3448.31235,0.20367
3446.38376,0.20417
3444.45517,0.20477
3442.52659,0.20538
3440.59800,0.20595
3438.66942,0.20641
3436.74083,0.20691
3434.81224,0.20751
3432.88366,0.20807
3430.95507,0.20845
3429.02648,0.20888
3427.09790,0.20930
3425.16931,0.20954
3423.24072,0.21000
3421.31214,0.21047
3419.38355,0.21084
3417.45497,0.21124
3415.52638,0.21158
3413.59779,0.21207
3411.66921,0.21252
3409.74062,0.21284
3407.81203,0.21305
3405.88345,0.21320
3403.95486,0.21347
3402.02628,0.21377
3400.09769,0.21410
3398.16910,0.21440
3396.24052,0.21459
3394.31193,0.21477
3392.38334,0.21498
3390.45476,0.21526
3388.52617,0.21565
3386.59758,0.21591
3384.66900,0.21594
3382.74041,0.21611
3380.81183,0.21635
3378.88324,0.21659
3376.95465,0.21679
3375.02607,0.21690
3373.09748,0.21721
3371.16889,0.21756
3369.24031,0.21769
3367.31172,0.21781
3365.38314,0.21802
3363.45455,0.21823
3361.52596,0.21848
3359.59738,0.21870
3357.66879,0.21875
3355.74020,0.21877
3353.81162,0.21871
3351.88303,0.21861
3349.95444,0.21878
3348.02586,0.21915
3346.09727,0.21943
3344.16869,0.21943
3342.24010,0.21940
3340.31151,0.21958
3338.38293,0.21960
3336.45434,0.21953
3334.52575,0.21962
3332.59717,0.21975
3330.66858,0.21980
3328.73999,0.21965
3326.81141,0.21957
3324.88282,0.21964
3322.95424,0.21967
3321.02565,0.21969
3319.09706,0.21978
3317.16848,0.21980
3315.23989,0.21962
3313.31130,0.21960
3311.38272,0.21972
3309.45413,0.21974
3307.52555,0.21964
3305.59696,0.21929
3303.66837,0.21906
3301.73979,0.21908
3299.81120,0.21905
3297.88261,0.21897
3295.95403,0.21883
3294.02544,0.21846
3292.09685,0.21791
3290.16827,0.21763
3288.23968,0.21747
3286.31110,0.21718
3284.38251,0.21686
3282.45392,0.21634
3280.52534,0.21573
3278.59675,0.21526
3276.66816,0.21482
3274.73958,0.21435
3272.81099,0.21379
3270.88241,0.21299
3268.95382,0.21206
3267.02523,0.21126
3265.09665,0.21041
3263.16806,0.20955
3261.23947,0.20875
3259.31089,0.20789
3257.38230,0.20724
3255.45371,0.20658
3253.52513,0.20553
3251.59654,0.20449
3249.66796,0.20374
3247.73937,0.20300
3245.81078,0.20229
3243.88220,0.20155
3241.95361,0.20072
3240.02502,0.19992
3238.09644,0.19914
3236.16785,0.19844
3234.23927,0.19777
3232.31068,0.19698
3230.38209,0.19614
3228.45351,0.19534
3226.52492,0.19466
3224.59633,0.19400
3222.66775,0.19326
3220.73916,0.19243
3218.81057,0.19168
3216.88199,0.19099
3214.95340,0.19013
3213.02482,0.18947
3211.09623,0.18885
3209.16764,0.18802
3207.23906,0.18742
3205.31047,0.18679
3203.38188,0.18602
3201.45330,0.18523
3199.52471,0.18437
3197.59612,0.18359
3195.66754,0.18273
3193.73895,0.18191
3191.81037,0.18115
3189.88178,0.18034
3187.95319,0.17954
3186.02461,0.17863
3184.09602,0.17775
3182.16743,0.17691
3180.23885,0.17614
3178.31026,0.17537
3176.38168,0.17444
3174.45309,0.17366
3172.52450,0.17291
3170.59592,0.17199
3168.66733,0.17102
3166.73874,0.17015
3164.81016,0.16934
3162.88157,0.16843
3160.95298,0.16763
3159.02440,0.16689
3157.09581,0.16604
3155.16723,0.16529
3153.23864,0.16468
3151.31005,0.16401
3149.38147,0.16325
3147.45288,0.16252
3145.52429,0.16171
3143.59571,0.16083
3141.66712,0.16008
3139.73854,0.15948
3137.80995,0.15898
3135.88136,0.15844
3133.95278,0.15781
3132.02419,0.15716
3130.09560,0.15653
3128.16702,0.15595
3126.23843,0.15536
3124.30984,0.15480
3122.38126,0.15437
3120.45267,0.15396
3118.52409,0.15358
3116.59550,0.15311
3114.66691,0.15265
3112.73833,0.15230
3110.80974,0.15184
3108.88115,0.15145
3106.95257,0.15108
3105.02398,0.15061
3103.09540,0.15026
3101.16681,0.14988
3099.23822,0.14949
3097.30964,0.14919
3095.38105,0.14885
3093.45246,0.14848
3091.52388,0.14812
3089.59529,0.14779
3087.66670,0.14748
3085.73812,0.14714
3083.80953,0.14678
3081.88095,0.14640
3079.95236,0.14591
3078.02377,0.14542
3076.09519,0.14493
3074.16660,0.14443
3072.23801,0.14400
3070.30943,0.14345
3068.38084,0.14285
3066.45225,0.14234
3064.52367,0.14169
3062.59508,0.14099
3060.66650,0.14037
3058.73791,0.13967
3056.80932,0.13897
3054.88074,0.13831
3052.95215,0.13761
3051.02356,0.13695
3049.09498,0.13628
3047.16639,0.13562
3045.23781,0.13493
3043.30922,0.13423
3041.38063,0.13372
3039.45205,0.13313
3037.52346,0.13240
3035.59487,0.13180
3033.66629,0.13140
3031.73770,0.13098
3029.80911,0.13042
3027.88053,0.12997
3025.95194,0.12959
3024.02336,0.12916
3022.09477,0.12869
3020.16618,0.12824
3018.23760,0.12806
3016.30901,0.12798
3014.38042,0.12792
3012.45184,0.12790
3010.52325,0.12790
3008.59467,0.12803
3006.66608,0.12812
3004.73749,0.12827
3002.80891,0.12861
3000.88032,0.12900
2998.95173,0.12942
2997.02315,0.12999
2995.09456,0.13060
2993.16597,0.13119
2991.23739,0.13208
2989.30880,0.13318
2987.38022,0.13429
2985.45163,0.13559
2983.52304,0.13712
2981.59446,0.13872
2979.66587,0.14031
2977.73728,0.14199
2975.80870,0.14378
2973.88011,0.14557
2971.95153,0.14731
2970.02294,0.14913
2968.09435,0.15106
2966.16577,0.15297
2964.23718,0.15498
2962.30859,0.15711
2960.38001,0.15910
2958.45142,0.16092
2956.52283,0.16284
2954.59425,0.16476
2952.66566,0.16649
2950.73708,0.16828
2948.80849,0.17031
2946.87990,0.17271
2944.95132,0.17572
2943.02273,0.17928
2941.09414,0.18319
2939.16556,0.18747
2937.23697,0.19205
2935.30838,0.19654
2933.37980,0.20084
2931.45121,0.20499
2929.52263,0.20861
2927.59404,0.21177
2925.66545,0.21432
2923.73687,0.21580
2921.80828,0.21600
2919.87969,0.21461
2917.95111,0.21116
2916.02252,0.20498
2914.09394,0.19671
2912.16535,0.18851
2910.23676,0.18179
2908.30818,0.17653
2906.37959,0.17225
2904.45100,0.16865
2902.52242,0.16552
2900.59383,0.16266
2898.66524,0.16002
2896.73666,0.15760
2894.80807,0.15521
2892.87949,0.15280
2890.95090,0.15043
2889.02231,0.14812
2887.09373,0.14602
2885.16514,0.14429
2883.23655,0.14277
2881.30797,0.14149
2879.37938,0.14059
2877.45080,0.14008
2875.52221,0.13995
2873.59362,0.14005
2871.66504,0.14029
2869.73645,0.14057
2867.80786,0.14105
2865.87928,0.14204
2863.95069,0.14384
2862.02210,0.14686
2860.09352,0.15118
2858.16493,0.15647
2856.23635,0.16196
2854.30776,0.16663
2852.37917,0.16914
2850.45059,0.16751
2848.52200,0.16059
2846.59341,0.15019
2844.66483,0.13952
2842.73624,0.13021
2840.80766,0.12252
2838.87907,0.11636
2836.95048,0.11150
2835.02190,0.10763
2833.09331,0.10440
2831.16472,0.10168
2829.23614,0.09934
2827.30755,0.09717
2825.37896,0.09526
2823.45038,0.09366
2821.52179,0.09219
2819.59321,0.09072
2817.66462,0.08935
2815.73603,0.08816
2813.80745,0.08709
2811.87886,0.08618
2809.95027,0.08528
2808.02169,0.08425
2806.09310,0.08325
2804.16451,0.08232
2802.23593,0.08144
2800.30734,0.08069
2798.37876,0.07992
2796.45017,0.07908
2794.52158,0.07836
2792.59300,0.07771
2790.66441,0.07705
2788.73582,0.07638
2786.80724,0.07569
2784.87865,0.07495
2782.95007,0.07425
2781.02148,0.07366
2779.09289,0.07314
2777.16431,0.07266
2775.23572,0.07211
2773.30713,0.07152
2771.37855,0.07101
2769.44996,0.07055
2767.52137,0.07012
2765.59279,0.06968
2763.66420,0.06921
2761.73562,0.06876
2759.80703,0.06833
2757.87844,0.06790
2755.94986,0.06751
2754.02127,0.06718
2752.09268,0.06679
2750.16410,0.06643
2748.23551,0.06612
2746.30693,0.06576
2744.37834,0.06541
2742.44975,0.06498
2740.52117,0.06451
2738.59258,0.06417
2736.66399,0.06386
2734.73541,0.06349
2732.80682,0.06311
2730.87823,0.06278
2728.94965,0.06244
2727.02106,0.06207
2725.09248,0.06166
2723.16389,0.06120
2721.23530,0.06073
2719.30672,0.06028
2717.37813,0.05992
2715.44954,0.05955
2713.52096,0.05914
2711.59237,0.05876
2709.66379,0.05836
2707.73520,0.05800
2705.80661,0.05767
2703.87803,0.05723
2701.94944,0.05681
2700.02085,0.05649
2698.09227,0.05622
2696.16368,0.05592
2694.23509,0.05548
2692.30651,0.05508
2690.37792,0.05483
2688.44934,0.05463
2686.52075,0.05437
2684.59216,0.05407
2682.66358,0.05378
2680.73499,0.05345
2678.80640,0.05308
2676.87782,0.05281
2674.94923,0.05253
2673.02064,0.05215
2671.09206,0.05179
2669.16347,0.05149
2667.23489,0.05113
2665.30630,0.05075
2663.37771,0.05035
2661.44913,0.05001
2659.52054,0.04976
2657.59195,0.04939
2655.66337,0.04900
2653.73478,0.04873
2651.80620,0.04843
2649.87761,0.04813
2647.94902,0.04788
2646.02044,0.04761
2644.09185,0.04724
2642.16326,0.04694
2640.23468,0.04666
2638.30609,0.04629
2636.37750,0.04602
2634.44892,0.04580
2632.52033,0.04546
2630.59175,0.04504
2628.66316,0.04476
2626.73457,0.04451
2624.80599,0.04413
2622.87740,0.04383
2620.94881,0.04358
2619.02023,0.04328
2617.09164,0.04291
2615.16306,0.04256
2613.23447,0.04228
2611.30588,0.04198
2609.37730,0.04166
2607.44871,0.04136
2605.52012,0.04105
2603.59154,0.04067
2601.66295,0.04039
2599.73436,0.04023
2597.80578,0.03986
2595.87719,0.03948
2593.94861,0.03917
2592.02002,0.03888
2590.09143,0.03862
2588.16285,0.03828
2586.23426,0.03800
2584.30567,0.03777
2582.37709,0.03751
2580.44850,0.03713
2578.51991,0.03673
2576.59133,0.03648
2574.66274,0.03623
2572.73416,0.03600
2570.80557,0.03577
2568.87698,0.03548
2566.94840,0.03519
2565.01981,0.03494
2563.09122,0.03476
2561.16264,0.03456
2559.23405,0.03427
2557.30547,0.03402
2555.37688,0.03377
2553.44829,0.03344
2551.51971,0.03316
2549.59112,0.03292
2547.66253,0.03272
2545.73395,0.03255
2543.80536,0.03231
2541.87677,0.03205
2539.94819,0.03179
2538.01960,0.03159
2536.09102,0.03140
2534.16243,0.03109
2532.23384,0.03081
2530.30526,0.03062
2528.37667,0.03043
2526.44808,0.03024
2524.51950,0.03003
2522.59091,0.02976
2520.66233,0.02944
2518.73374,0.02919
2516.80515,0.02891
2514.87657,0.02859
2512.94798,0.02832
2511.01939,0.02803
2509.09081,0.02778
2507.16222,0.02755
2505.23363,0.02724
2503.30505,0.02696
2501.37646,0.02672
2499.44788,0.02646
2497.51929,0.02623
2495.59070,0.02600
2493.66212,0.02573
2491.73353,0.02545
2489.80494,0.02516
2487.87636,0.02483
2485.94777,0.02450
2484.01919,0.02423
2482.09060,0.02399
2480.16201,0.02373
2478.23343,0.02346
2476.30484,0.02318
2474.37625,0.02291
2472.44767,0.02264
2470.51908,0.02234
2468.59049,0.02204
2466.66191,0.02176
2464.73332,0.02148
2462.80474,0.02118
2460.87615,0.02087
2458.94756,0.02050
2457.01898,0.02020
2455.09039,0.02002
2453.16180,0.01982
2451.23322,0.01953
2449.30463,0.01928
2447.37604,0.01909
2445.44746,0.01886
2443.51887,0.01856
2441.59029,0.01819
2439.66170,0.01788
2437.73311,0.01760
2435.80453,0.01732
2433.87594,0.01715
2431.94735,0.01693
2430.01877,0.01661
2428.09018,0.01625
2426.16160,0.01594
2424.23301,0.01573
2422.30442,0.01550
2420.37584,0.01532
2418.44725,0.01512
2416.51866,0.01479
2414.59008,0.01453
2412.66149,0.01432
2410.73290,0.01411
2408.80432,0.01389
2406.87573,0.01370
2404.94715,0.01350
2403.01856,0.01324
2401.08997,0.01301
2399.16139,0.01281
2397.23280,0.01252
2395.30421,0.01227
2393.37563,0.01213
2391.44704,0.01191
2389.51846,0.01161
2387.58987,0.01142
2385.66128,0.01132
2383.73270,0.01118
2381.80411,0.01098
2379.87552,0.01076
2377.94694,0.01048
2376.01835,0.01015
2374.08976,0.00977
2372.16118,0.00942
2370.23259,0.00903
2368.30401,0.00852
2366.37542,0.00805
2364.44683,0.00764
2362.51825,0.00727
2360.58966,0.00694
2358.66107,0.00670
2356.73249,0.00652
2354.80390,0.00637
2352.87532,0.00637
2350.94673,0.00667
2349.01814,0.00735
2347.08956,0.00774
2345.16097,0.00732
2343.23238,0.00678
2341.30380,0.00648
2339.37521,0.00629
2337.44662,0.00613
2335.51804,0.00585
2333.58945,0.00559
2331.66087,0.00543
2329.73228,0.00533
2327.80369,0.00528
2325.87511,0.00530
2323.94652,0.00531
2322.01793,0.00520
2320.08935,0.00514
2318.16076,0.00520
2316.23217,0.00527
2314.30359,0.00525
2312.37500,0.00523
2310.44642,0.00521
2308.51783,0.00515
2306.58924,0.00508
2304.66066,0.00495
2302.73207,0.00487
2300.80348,0.00487
2298.87490,0.00479
2296.94631,0.00468
2295.01773,0.00460
2293.08914,0.00453
2291.16055,0.00443
2289.23197,0.00433
2287.30338,0.00426
2285.37479,0.00410
2283.44621,0.00396
2281.51762,0.00387
2279.58903,0.00378
2277.66045,0.00372
2275.73186,0.00360
2273.80328,0.00343
2271.87469,0.00339
2269.94610,0.00333
2268.01752,0.00316
2266.08893,0.00305
2264.16034,0.00303
2262.23176,0.00297
2260.30317,0.00284
2258.37459,0.00271
2256.44600,0.00257
2254.51741,0.00252
2252.58883,0.00246
2250.66024,0.00235
2248.73165,0.00227
2246.80307,0.00220
2244.87448,0.00216
2242.94589,0.00209
2241.01731,0.00194
2239.08872,0.00188
2237.16014,0.00184
2235.23155,0.00176
2233.30296,0.00168
2231.37438,0.00159
2229.44579,0.00150
2227.51720,0.00144
2225.58862,0.00135
2223.66003,0.00120
2221.73145,0.00111
2219.80286,0.00112
2217.87427,0.00115
2215.94569,0.00110
2214.01710,0.00100
2212.08851,0.00089
2210.15993,0.00078
2208.23134,0.00069
2206.30275,0.00064
2204.37417,0.00067
2202.44558,0.00067
2200.51700,0.00058
2198.58841,0.00052
2196.65982,0.00052
2194.73124,0.00053
2192.80265,0.00050
2190.87406,0.00046
2188.94548,0.00044
2187.01689,0.00043
2185.08830,0.00048
2183.15972,0.00049
2181.23113,0.00042
2179.30255,0.00034
2177.37396,0.00034
2175.44537,0.00041
2173.51679,0.00040
2171.58820,0.00019
2169.65961,0.00000
2167.73103,0.00011
2165.80244,0.00031
2163.87386,0.00039
2161.94527,0.00040
2160.01668,0.00037
2158.08810,0.00037
2156.15951,0.00038
2154.23092,0.00036
2152.30234,0.00032
2150.37375,0.00033
2148.44516,0.00037
2146.51658,0.00033
2144.58799,0.00035
2142.65941,0.00040
2140.73082,0.00044
2138.80223,0.00040
2136.87365,0.00029
2134.94506,0.00028
2133.01647,0.00025
2131.08789,0.00018
2129.15930,0.00014
2127.23072,0.00013
2125.30213,0.00015
2123.37354,0.00010
2121.44496,0.00007
2119.51637,0.00005
2117.58778,0.00003
2115.65920,0.00011
2113.73061,0.00015
2111.80202,0.00011
2109.87344,0.00007
2107.94485,0.00002
2106.01627,-0.00005
2104.08768,-0.00003
2102.15909,-0.00000
2100.23051,-0.00006
2098.30192,-0.00005
2096.37333,0.00000
2094.44475,0.00001
2092.51616,0.00005
2090.58758,0.00005
2088.65899,-0.00004
2086.73040,-0.00006
2084.80182,-0.00000
2082.87323,0.00001
2080.94464,0.00000
2079.01606,-0.00005
2077.08747,-0.00002
2075.15888,0.00001
2073.23030,-0.00006
2071.30171,-0.00004
2069.37313,0.00000
2067.44454,0.00001
2065.51595,0.00004
2063.58737,0.00003
2061.65878,0.00005
2059.73019,0.00006
2057.80161,0.00005
2055.87302,0.00009
2053.94443,0.00014
2052.01585,0.00017
2050.08726,0.00024
2048.15868,0.00035
2046.23009,0.00046
2044.30150,0.00055
2042.37292,0.00064
2040.44433,0.00084
2038.51574,0.00108
2036.58716,0.00126
2034.65857,0.00146
2032.72999,0.00170
2030.80140,0.00186
2028.87281,0.00190
2026.94423,0.00191
2025.01564,0.00201
2023.08705,0.00212
2021.15847,0.00219
2019.22988,0.00222
2017.30129,0.00224
2015.37271,0.00230
2013.44412,0.00246
2011.51554,0.00270
2009.58695,0.00297
2007.65836,0.00314
2005.72978,0.00316
2003.80119,0.00317
2001.87260,0.00319
1999.94402,0.00328
1998.01543,0.00334
1996.08685,0.00333
1994.15826,0.00338
1992.22967,0.00326
1990.30109,0.00306
1988.37250,0.00299
1986.44391,0.00296
1984.51533,0.00289
1982.58674,0.00282
1980.65815,0.00281
1978.72957,0.00272
1976.80098,0.00254
1974.87240,0.00239
1972.94381,0.00232
1971.01522,0.00228
1969.08664,0.00212
1967.15805,0.00186
1965.22946,0.00159
1963.30088,0.00142
1961.37229,0.00121
1959.44371,0.00105
1957.51512,0.00097
1955.58653,0.00085
1953.65795,0.00074
1951.72936,0.00066
1949.80077,0.00065
1947.87219,0.00054
1945.94360,0.00044
1944.01501,0.00041
1942.08643,0.00012
1940.15784,0.00001
1938.22926,0.00009
1936.30067,-0.00001
1934.37208,-0.00011
1932.44350,-0.00020
1930.51491,-0.00019
1928.58632,-0.00015
1926.65774,-0.00011
1924.72915,0.00000
1922.80056,-0.00010
1920.87198,-0.00005
1918.94339,0.00023
1917.01481,0.00027
1915.08622,0.00042
1913.15763,0.00090
1911.22905,0.00132
1909.30046,0.00171
1907.37187,0.00217
1905.44329,0.00271
1903.51470,0.00325
1901.58612,0.00370
1899.65753,0.00418
1897.72894,0.00475
1895.80036,0.00529
1893.87177,0.00566
1891.94318,0.00609
1890.01460,0.00649
1888.08601,0.00668
1886.15742,0.00701
1884.22884,0.00724
1882.30025,0.00743
1880.37167,0.00766
1878.44308,0.00777
1876.51449,0.00795
1874.58591,0.00807
1872.65732,0.00815
1870.72873,0.00813
1868.80015,0.00773
1866.87156,0.00726
1864.94298,0.00706
1863.01439,0.00678
1861.08580,0.00623
1859.15722,0.00564
1857.22863,0.00492
1855.30004,0.00425
1853.37146,0.00353
1851.44287,0.00288
1849.51428,0.00234
1847.58570,0.00186
1845.65711,0.00152
1843.72853,0.00058
1841.79994,0.00000
1839.87135,0.00003
1837.94277,-0.00017
1836.01418,-0.00033
1834.08559,-0.00050
1832.15701,-0.00041
1830.22842,-0.00054
1828.29984,-0.00073
1826.37125,-0.00036
1824.44266,-0.00035
1822.51408,-0.00026
1820.58549,0.00016
1818.65690,0.00057
1816.72832,0.00101
1814.79973,0.00150
1812.87114,0.00224
1810.94256,0.00285
1809.01397,0.00351
1807.08539,0.00450
1805.15680,0.00553
1803.22821,0.00666
1801.29963,0.00773
1799.37104,0.00878
1797.44245,0.01007
1795.51387,0.01179
1793.58528,0.01350
1791.65669,0.01470
1789.72811,0.01618
1787.79952,0.01828
1785.87094,0.02016
1783.94235,0.02185
1782.01376,0.02368
1780.08518,0.02554
1778.15659,0.02747
1776.22800,0.02942
1774.29942,0.03139
1772.37083,0.03253
1770.44225,0.03368
1768.51366,0.03575
1766.58507,0.03746
1764.65649,0.03956
1762.72790,0.04161
1760.79931,0.04312
1758.87073,0.04545
1756.94214,0.04773
1755.01355,0.05024
1753.08497,0.05345
1751.15638,0.05618
1749.22780,0.05890
1747.29921,0.06245
1745.37062,0.06627
1743.44204,0.07010
1741.51345,0.07417
1739.58486,0.07782
1737.65628,0.08151
1735.72769,0.08544
1733.79911,0.08752
1731.87052,0.08956
1729.94193,0.09299
1728.01335,0.09586
1726.08476,0.09877
1724.15617,0.10158
1722.22759,0.10433
1720.29900,0.10780
1718.37041,0.11056
1716.44183,0.11256
1714.51324,0.11496
1712.58466,0.11776
1710.65607,0.12037
1708.72748,0.12285
1706.79890,0.12538
1704.87031,0.12747
1702.94172,0.13069
1701.01314,0.13369
1699.08455,0.13551
1697.15596,0.13914
1695.22738,0.14194
1693.29879,0.14457
1691.37021,0.14860
1689.44162,0.15147
1687.51303,0.15507
1685.58445,0.15843
1683.65586,0.15979
1681.72727,0.16278
1679.79869,0.16639
1677.87010,0.16981
1675.94152,0.17273
1674.01293,0.17485
1672.08434,0.17772
1670.15576,0.18013
1668.22717,0.18177
1666.29858,0.18399
1664.37000,0.18622
1662.44141,0.18727
1660.51282,0.18811
1658.58424,0.18930
1656.65565,0.19050
1654.72707,0.19146
1652.79848,0.18907
1650.86989,0.18748
1648.94131,0.18892
1647.01272,0.18865
1645.08413,0.18732
1643.15555,0.18723
1641.22696,0.18747
1639.29838,0.18761
1637.36979,0.18788
1635.44120,0.18677
1633.51262,0.18553
1631.58403,0.18585
1629.65544,0.18524
1627.72686,0.18368
1625.79827,0.18193
1623.86968,0.17981
1621.94110,0.17700
1620.01251,0.17483
1618.08393,0.17307
1616.15534,0.16943
1614.22675,0.16681
1612.29817,0.16519
1610.36958,0.16309
1608.44099,0.16108
1606.51241,0.15903
1604.58382,0.15714
1602.65524,0.15500
1600.72665,0.15303
1598.79806,0.15113
1596.86948,0.14936
1594.94089,0.14769
1593.01230,0.14584
1591.08372,0.14416
1589.15513,0.14243
1587.22654,0.14088
1585.29796,0.13904
1583.36937,0.13732
1581.44079,0.13561
1579.51220,0.13422
1577.58361,0.13326
1575.65503,0.13086
1573.72644,0.12956
1571.79785,0.12986
1569.86927,0.12919
1567.94068,0.12852
1566.01209,0.12889
1564.08351,0.12933
1562.15492,0.13028
1560.22634,0.13086
1558.29775,0.12917
1556.36916,0.12935
1554.44058,0.13065
1552.51199,0.13092
1550.58340,0.13158
1548.65482,0.13187
1546.72623,0.13222
1544.79765,0.13231
1542.86906,0.13202
1540.94047,0.13162
1539.01189,0.12955
1537.08330,0.12909
1535.15471,0.12948
1533.22613,0.12829
1531.29754,0.12700
1529.36895,0.12634
1527.44037,0.12546
1525.51178,0.12403
1523.58320,0.12333
1521.65461,0.12234
1519.72602,0.12125
1517.79744,0.12123
1515.86885,0.12025
1513.94026,0.11852
1512.01168,0.11614
1510.08309,0.11348
1508.15451,0.11092
1506.22592,0.10604
1504.29733,0.10168
1502.36875,0.09927
1500.44016,0.09626
1498.51157,0.09284
1496.58299,0.08902
1494.65440,0.08545
1492.72581,0.08334
1490.79723,0.08121
1488.86864,0.07876
1486.94006,0.07708
1485.01147,0.07608
1483.08288,0.07582
1481.15430,0.07614
1479.22571,0.07712
1477.29712,0.07900
1475.36854,0.08182
1473.43995,0.08580
1471.51137,0.09062
1469.58278,0.09625
1467.65419,0.10127
1465.72561,0.10373
1463.79702,0.10447
1461.86843,0.10511
1459.93985,0.10634
1458.01126,0.10714
1456.08267,0.10666
1454.15409,0.10699
1452.22550,0.10754
1450.29692,0.10744
1448.36833,0.10713
1446.43974,0.10655
1444.51116,0.10629
1442.58257,0.10613
1440.65398,0.10600
1438.72540,0.10613
1436.79681,0.10547
1434.86822,0.10469
1432.93964,0.10482
1431.01105,0.10481
1429.08247,0.10434
1427.15388,0.10424
1425.22529,0.10442
1423.29671,0.10450
1421.36812,0.10487
1419.43953,0.10469
1417.51095,0.10399
1415.58236,0.10411
1413.65378,0.10406
1411.72519,0.10361
1409.79660,0.10299
1407.86802,0.10225
1405.93943,0.10149
1404.01084,0.10021
1402.08226,0.09937
1400.15367,0.09850
1398.22508,0.09726
1396.29650,0.09643
1394.36791,0.09535
1392.43933,0.09439
1390.51074,0.09373
1388.58215,0.09233
1386.65357,0.08923
1384.72498,0.08655
1382.79639,0.08785
1380.86781,0.09133
1378.93922,0.09347
1377.01064,0.09401
1375.08205,0.09374
1373.15346,0.09308
1371.22488,0.09233
1369.29629,0.09152
1367.36770,0.09034
1365.43912,0.08902
1363.51053,0.08762
1361.58194,0.08614
1359.65336,0.08514
1357.72477,0.08462
1355.79619,0.08403
1353.86760,0.08328
1351.93901,0.08279
1350.01043,0.08231
1348.08184,0.08176
1346.15325,0.08126
1344.22467,0.08083
1342.29608,0.08057
1340.36750,0.08013
1338.43891,0.07958
1336.51032,0.07918
1334.58174,0.07890
1332.65315,0.07856
1330.72456,0.07810
1328.79598,0.07771
1326.86739,0.07748
1324.93880,0.07731
1323.01022,0.07700
1321.08163,0.07672
1319.15305,0.07655
1317.22446,0.07637
1315.29587,0.07614
1313.36729,0.07581
1311.43870,0.07572
1309.51011,0.07569
1307.58153,0.07551
1305.65294,0.07539
1303.72435,0.07532
1301.79577,0.07536
1299.86718,0.07552
1297.93860,0.07581
1296.01001,0.07618
1294.08142,0.07673
1292.15284,0.07748
1290.22425,0.07835
1288.29566,0.07939
1286.36708,0.08056
1284.43849,0.08205
1282.50991,0.08367
1280.58132,0.08533
1278.65273,0.08720
1276.72415,0.08918
1274.79556,0.09133
1272.86697,0.09360
1270.93839,0.09615
1269.00980,0.09905
1267.08121,0.10209
1265.15263,0.10545
1263.22404,0.10935
1261.29546,0.11382
1259.36687,0.11858
1257.43828,0.12402
1255.50970,0.13045
1253.58111,0.13736
1251.65252,0.14431
1249.72394,0.15117
1247.79535,0.15789
1245.86677,0.16426
1243.93818,0.17034
1242.00959,0.17590
1240.08101,0.18081
1238.15242,0.18543
1236.22383,0.18972
1234.29525,0.19373
1232.36666,0.19735
1230.43807,0.20065
1228.50949,0.20372
1226.58090,0.20627
1224.65232,0.20869
1222.72373,0.21115
1220.79514,0.21360
1218.86656,0.21600
1216.93797,0.21825
1215.00938,0.22046
1213.08080,0.22265
1211.15221,0.22474
1209.22363,0.22663
1207.29504,0.22850
1205.36645,0.23053
1203.43787,0.23247
1201.50928,0.23402
1199.58069,0.23544
1197.65211,0.23703
1195.72352,0.23863
1193.79493,0.24024
1191.86635,0.24191
1189.93776,0.24356
1188.00918,0.24490
1186.08059,0.24608
1184.15200,0.24771
1182.22342,0.24954
1180.29483,0.25135
1178.36624,0.25327
1176.43766,0.25534
1174.50907,0.25753
1172.58048,0.25993
1170.65190,0.26271
1168.72331,0.26526
1166.79473,0.26755
1164.86614,0.26992
1162.93755,0.27213
1161.00897,0.27422
1159.08038,0.27587
1157.15179,0.27697
1155.22321,0.27814
1153.29462,0.27957
1151.36604,0.28115
1149.43745,0.28300
1147.50886,0.28504
1145.58028,0.28740
1143.65169,0.28999
1141.72310,0.29239
1139.79452,0.29532
1137.86593,0.29867
1135.93734,0.30184
1134.00876,0.30535
1132.08017,0.30878
1130.15159,0.31195
1128.22300,0.31583
1126.29441,0.32070
1124.36583,0.32591
1122.43724,0.33113
1120.50865,0.33658
1118.58007,0.34214
1116.65148,0.34798
1114.72290,0.35422
1112.79431,0.36054
1110.86572,0.36702
1108.93714,0.37358
1107.00855,0.37994
1105.07996,0.38556
1103.15138,0.39008
1101.22279,0.39367
1099.29420,0.39624
1097.36562,0.39776
1095.43703,0.39887
1093.50845,0.39953
1091.57986,0.39949
1089.65127,0.39934
1087.72269,0.39861
1085.79410,0.39684
1083.86551,0.39492
1081.93693,0.39294
1080.00834,0.39061
1078.07976,0.38839
1076.15117,0.38594
1074.22258,0.38302
1072.29400,0.38005
1070.36541,0.37696
1068.43682,0.37429
1066.50824,0.37220
1064.57965,0.37002
1062.65106,0.36718
1060.72248,0.36372
1058.79389,0.35999
1056.86531,0.35557
1054.93672,0.35106
1053.00813,0.34682
1051.07955,0.34285
1049.15096,0.34014
1047.22237,0.33767
1045.29379,0.33515
1043.36520,0.33360
1041.43661,0.33250
1039.50803,0.33138
1037.57944,0.33035
1035.65086,0.32899
1033.72227,0.32672
1031.79368,0.32423
1029.86510,0.32158
1027.93651,0.31811
1026.00792,0.31458
1024.07934,0.31082
1022.15075,0.30674
1020.22217,0.30288
1018.29358,0.29895
1016.36499,0.29520
1014.43641,0.29161
1012.50782,0.28816
1010.57923,0.28486
1008.65065,0.28129
1006.72206,0.27753
1004.79347,0.27345
1002.86489,0.26900
1000.93630,0.26430
999.00772,0.25931
997.07913,0.25427
995.15054,0.24944
993.22196,0.24476
991.29337,0.23973
989.36478,0.23411
987.43620,0.22844
985.50761,0.22306
983.57903,0.21710
981.65044,0.20999
979.72185,0.20271
977.79327,0.19535
975.86468,0.18723
973.93609,0.17917
972.00751,0.17159
970.07892,0.16400
968.15033,0.15671
966.22175,0.15011
964.29316,0.14392
962.36458,0.13827
960.43599,0.13331
958.50740,0.12863
956.57882,0.12446
954.65023,0.12094
952.72164,0.11784
950.79306,0.11529
948.86447,0.11314
946.93589,0.11122
945.00730,0.10946
943.07871,0.10790
941.15013,0.10670
939.22154,0.10545
937.29295,0.10385
935.36437,0.10237
933.43578,0.10112
931.50719,0.09979
929.57861,0.09858
927.65002,0.09743
925.72144,0.09616
923.79285,0.09515
921.86426,0.09427
919.93568,0.09341
918.00709,0.09298
916.07850,0.09267
914.14992,0.09169
912.22133,0.08973
910.29274,0.08704
908.36416,0.08343
906.43557,0.07882
904.50699,0.07399
902.57840,0.06907
900.64981,0.06403
898.72123,0.05921
896.79264,0.05455
894.86405,0.05017
892.93547,0.04624
891.00688,0.04275
889.07830,0.03945
887.14971,0.03615
885.22112,0.03305
883.29254,0.03021
881.36395,0.02763
879.43536,0.02501
877.50678,0.02226
875.57819,0.01951
873.64960,0.01676
871.72102,0.01424
869.79243,0.01192
867.86385,0.00965
865.93526,0.00741
864.00667,0.00536
862.07809,0.00353
860.14950,0.00209
858.22091,0.00114
856.29233,0.00040
854.36374,0.00000
852.43516,0.00006
850.50657,0.00037
848.57798,0.00118
846.64940,0.00282
844.72081,0.00483
842.79222,0.00713
840.86364,0.01024
838.93505,0.01370
837.00646,0.01705
835.07788,0.02066
833.14929,0.02390
831.22071,0.02647
829.29212,0.02874
827.36353,0.03034
825.43495,0.03182
823.50636,0.03343
821.57777,0.03458
819.64919,0.03582
817.72060,0.03726
815.79201,0.03936
813.86343,0.04271
811.93484,0.04561
810.00626,0.04818
808.07767,0.05276
806.14908,0.05889
804.22050,0.06476
802.29191,0.06955
800.36332,0.07182
798.43474,0.07059
796.50615,0.06712
794.57757,0.06276
792.64898,0.05841
790.72039,0.05514
788.79181,0.05256
786.86322,0.05019
784.93463,0.04907
783.00605,0.04953
781.07746,0.04999
779.14887,0.04832
777.22029,0.04406
775.29170,0.03809
773.36312,0.03227
771.43453,0.02793
769.50594,0.02441
767.57736,0.02186
765.64877,0.02084
763.72018,0.02054
761.79160,0.02018
759.86301,0.01977
757.93443,0.01997
756.00584,0.02055
754.07725,0.02051
752.14867,0.01976
750.22008,0.01880
748.29149,0.01774
746.36291,0.01634
744.43432,0.01500
742.50573,0.01355
740.57715,0.01143
738.64856,0.00923
736.71998,0.00749
734.79139,0.00647
732.86280,0.00604
730.93422,0.00525
729.00563,0.00439
727.07704,0.00443
725.14846,0.00535
723.21987,0.00616
721.29129,0.00582
719.36270,0.00489
717.43411,0.00362
715.50553,0.00200
713.57694,0.00153
711.64835,0.00164
709.71977,0.00201
707.79118,0.00327
705.86259,0.00432
703.93401,0.00542
702.00542,0.00743
700.07684,0.01116
698.14825,0.01582
696.21966,0.01843
694.29108,0.01812
692.36249,0.01547
690.43390,0.01196
688.50532,0.00942
686.57673,0.00796
684.64814,0.00695
682.71956,0.00600
680.79097,0.00560
678.86239,0.00566
676.93380,0.00532
675.00521,0.00464
673.07663,0.00375
671.14804,0.00294
669.21945,0.00144
667.29087,0.00000
665.36228,0.00131
663.43370,0.00212
661.50511,0.00121
659.57652,0.00105
657.64794,0.00109
655.71935,0.00177
653.79076,0.00318
651.86218,0.00455
649.93359,0.00451
648.00500,0.00303
646.07642,0.00380
644.14783,0.00555
642.21925,0.00664
640.29066,0.00750
638.36207,0.00737
636.43349,0.00736
634.50490,0.00744
632.57631,0.00855
630.64773,0.00980
628.71914,0.00943
626.79056,0.00972
624.86197,0.01051
622.93338,0.01045
621.00480,0.01058
619.07621,0.01143
617.14762,0.01193
615.21904,0.01297
613.29045,0.01431
611.36186,0.01510
609.43328,0.01695
607.50469,0.01756
605.57611,0.01753
603.64752,0.01940
601.71893,0.02135
599.79035,0.02322
597.86176,0.02514
595.93317,0.02688
594.00459,0.02841
592.07600,0.03067
590.14742,0.03410
588.21883,0.03728
586.29024,0.04007
584.36166,0.04251
582.43307,0.04522
580.50448,0.04817
578.57590,0.05194
576.64731,0.05631
574.71872,0.06008
572.79014,0.06498
570.86155,0.06908
568.93297,0.07130
567.00438,0.07476
565.07579,0.07918
563.14721,0.08271
561.21862,0.08534
559.29003,0.08885
557.36145,0.09386
555.43286,0.09862
553.50427,0.10102
551.57569,0.10187
549.64710,0.10519
547.71852,0.11068
545.78993,0.11493
543.86134,0.11947
541.93276,0.12348
540.00417,0.12510
538.07558,0.12948
536.14700,0.13584
534.21841,0.13931
532.28983,0.14147
530.36124,0.14368
528.43265,0.14489
526.50407,0.14358
524.57548,0.14083
522.64689,0.13883
520.71831,0.13621
518.78972,0.13216
516.86113,0.12898
514.93255,0.12631
513.00396,0.12184
511.07538,0.11872
509.14679,0.11844
507.21820,0.11816
505.28962,0.11857
503.36103,0.11988
501.43244,0.12218
499.50386,0.12694
497.57527,0.13377
495.64669,0.14169
493.71810,0.15033
491.78951,0.16066
489.86093,0.17177
487.93234,0.18201
486.00375,0.19077
484.07517,0.19841
482.14658,0.20930
480.21799,0.22283
478.28941,0.23313
476.36082,0.24143
474.43224,0.24878
472.50365,0.24790
470.57506,0.24136
468.64648,0.23711
466.71789,0.23171
464.78930,0.22617
462.86072,0.21919
460.93213,0.20640
459.00355,0.19328
457.07496,0.18445
455.14637,0.17380
453.21779,0.15851
451.28920,0.14736
449.36061,0.14053
447.43203,0.13511
445.50344,0.12894
443.57485,0.12168
441.64627,0.11864
439.71768,0.11442
437.78910,0.10656
435.86051,0.09932
433.93192,0.09291
432.00334,0.08940
430.07475,0.09175
428.14616,0.09230
426.21758,0.08363
424.28899,0.07587
422.36040,0.07162
420.43182,0.06398
418.50323,0.05380
416.57465,0.04836
414.64606,0.04633
412.71747,0.03582
410.78889,0.02304
408.86030,0.02259
406.93171,0.02405
405.00313,0.01996
403.07454,0.01791
401.14596,0.01306
399.21737,0.00000
