3747.24323,0.00046
3745.31464,0.00453
3743.38605,0.00057
3741.45747,0.00000
3739.52888,0.00449
3737.60030,0.00667
3735.67171,0.00643
3733.74312,0.00550
3731.81454,0.00536
3729.88595,0.00594
3727.95736,0.00844
3726.02878,0.01003
3724.10019,0.01050
3722.17161,0.01245
3720.24302,0.01345
3718.31443,0.01574
3716.38585,0.01858
3714.45726,0.02284
3712.52867,0.02683
3710.60009,0.02711
3708.67150,0.03005
3706.74291,0.03393
3704.81433,0.03908
3702.88574,0.04375
3700.95716,0.04525
3699.02857,0.04773
3697.09998,0.04966
3695.17140,0.05146
3693.24281,0.05296
3691.31422,0.05498
3689.38564,0.05554
3687.45705,0.05368
3685.52846,0.05626
3683.59988,0.06089
3681.67129,0.06555
3679.74271,0.06920
3677.81412,0.07486
3675.88553,0.07884
3673.95695,0.07863
3672.02836,0.08570
3670.09977,0.09096
3668.17119,0.09278
3666.24260,0.09867
3664.31402,0.10388
3662.38543,0.10844
3660.45684,0.11250
3658.52826,0.11771
3656.59967,0.12159
3654.67108,0.12313
3652.74250,0.12900
3650.81391,0.13425
3648.88532,0.13424
3646.95674,0.13441
3645.02815,0.13807
3643.09957,0.14245
3641.17098,0.14558
3639.24239,0.14878
3637.31381,0.15202
3635.38522,0.15533
3633.45663,0.15809
3631.52805,0.16214
3629.59946,0.16508
3627.67088,0.16247
3625.74229,0.16398
3623.81370,0.16755
3621.88512,0.16978
3619.95653,0.17048
3618.02794,0.16691
3616.09936,0.16569
3614.17077,0.16619
3612.24218,0.16533
3610.31360,0.16499
3608.38501,0.16376
3606.45643,0.16261
3604.52784,0.16299
3602.59925,0.16357
3600.67067,0.16340
3598.74208,0.16331
3596.81349,0.16375
3594.88491,0.16377
3592.95632,0.16349
3591.02774,0.16463
3589.09915,0.16636
3587.17056,0.16560
3585.24198,0.16511
3583.31339,0.16682
3581.38480,0.16828
3579.45622,0.16953
3577.52763,0.17067
3575.59904,0.17188
3573.67046,0.17336
3571.74187,0.17493
3569.81329,0.17718
3567.88470,0.17845
3565.95611,0.17825
3564.02753,0.17935
3562.09894,0.18145
3560.17035,0.18311
3558.24177,0.18463
3556.31318,0.18635
3554.38459,0.18826
3552.45601,0.18963
3550.52742,0.19078
3548.59884,0.19298
3546.67025,0.19475
3544.74166,0.19534
3542.81308,0.19654
3540.88449,0.19850
3538.95590,0.20028
3537.02732,0.20160
3535.09873,0.20286
3533.17015,0.20432
3531.24156,0.20614
3529.31297,0.20775
3527.38439,0.20883
3525.45580,0.21020
3523.52721,0.21157
3521.59863,0.21282
3519.67004,0.21446
3517.74145,0.21599
3515.81287,0.21729
3513.88428,0.21850
3511.95570,0.21973
3510.02711,0.22105
3508.09852,0.22216
3506.16994,0.22357
3504.24135,0.22516
3502.31276,0.22638
3500.38418,0.22803
3498.45559,0.22946
3496.52701,0.23040
3494.59842,0.23154
3492.66983,0.23277
3490.74125,0.23432
3488.81266,0.23564
3486.88407,0.23664
3484.95549,0.23751
3483.02690,0.23859
3481.09831,0.23975
3479.16973,0.24035
3477.24114,0.24132
3475.31256,0.24248
3473.38397,0.24356
3471.45538,0.24437
3469.52680,0.24512
3467.59821,0.24664
3465.66962,0.24776
3463.74104,0.24844
3461.81245,0.24935
3459.88386,0.25030
3457.95528,0.25107
3456.02669,0.25162
3454.09811,0.25248
3452.16952,0.25335
3450.24093,0.25417
3448.31235,0.25501
3446.38376,0.25588
3444.45517,0.25675
3442.52659,0.25724
3440.59800,0.25774
3438.66942,0.25840
3436.74083,0.25915
3434.81224,0.26021
3432.88366,0.26120
3430.95507,0.26163
3429.02648,0.26195
3427.09790,0.26266
3425.16931,0.26350
3423.24072,0.26421
3421.31214,0.26475
3419.38355,0.26534
3417.45497,0.26584
3415.52638,0.26633
3413.59779,0.26691
3411.66921,0.26744
3409.74062,0.26793
3407.81203,0.26816
3405.88345,0.26863
3403.95486,0.26932
3402.02628,0.26954
3400.09769,0.26964
3398.16910,0.26992
3396.24052,0.27040
3394.31193,0.27101
3392.38334,0.27150
3390.45476,0.27180
3388.52617,0.27203
3386.59758,0.27233
3384.66900,0.27281
3382.74041,0.27309
3380.81183,0.27325
3378.88324,0.27369
3376.95465,0.27411
3375.02607,0.27446
3373.09748,0.27472
3371.16889,0.27505
3369.24031,0.27541
3367.31172,0.27562
3365.38314,0.27600
3363.45455,0.27627
3361.52596,0.27640
3359.59738,0.27684
3357.66879,0.27760
3355.74020,0.27793
3353.81162,0.27770
3351.88303,0.27750
3349.95444,0.27745
3348.02586,0.27772
3346.09727,0.27810
3344.16869,0.27843
3342.24010,0.27856
3340.31151,0.27862
3338.38293,0.27887
3336.45434,0.27886
3334.52575,0.27903
3332.59717,0.27927
3330.66858,0.27920
3328.73999,0.27922
3326.81141,0.27920
3324.88282,0.27937
3322.95424,0.27970
3321.02565,0.27993
3319.09706,0.28014
3317.16848,0.28011
3315.23989,0.27997
3313.31130,0.27994
3311.38272,0.27982
3309.45413,0.27971
3307.52555,0.27970
3305.59696,0.27938
3303.66837,0.27895
3301.73979,0.27897
3299.81120,0.27918
3297.88261,0.27874
3295.95403,0.27810
3294.02544,0.27801
3292.09685,0.27781
3290.16827,0.27740
3288.23968,0.27697
3286.31110,0.27654
3284.38251,0.27612
3282.45392,0.27541
3280.52534,0.27465
3278.59675,0.27391
3276.66816,0.27301
3274.73958,0.27210
3272.81099,0.27131
3270.88241,0.27027
3268.95382,0.26913
3267.02523,0.26811
3265.09665,0.26679
3263.16806,0.26563
3261.23947,0.26467
3259.31089,0.26336
3257.38230,0.26202
3255.45371,0.26070
3253.52513,0.25946
3251.59654,0.25825
3249.66796,0.25707
3247.73937,0.25621
3245.81078,0.25520
3243.88220,0.25386
3241.95361,0.25265
3240.02502,0.25145
3238.09644,0.25037
3236.16785,0.24966
3234.23927,0.24890
3232.31068,0.24791
3230.38209,0.24691
3228.45351,0.24610
3226.52492,0.24508
3224.59633,0.24389
3222.66775,0.24307
3220.73916,0.24216
3218.81057,0.24113
3216.88199,0.24018
3214.95340,0.23910
3213.02482,0.23794
3211.09623,0.23689
3209.16764,0.23601
3207.23906,0.23486
3205.31047,0.23363
3203.38188,0.23279
3201.45330,0.23181
3199.52471,0.23090
3197.59612,0.23007
3195.66754,0.22889
3193.73895,0.22780
3191.81037,0.22680
3189.88178,0.22582
3187.95319,0.22493
3186.02461,0.22373
3184.09602,0.22251
3182.16743,0.22152
3180.23885,0.22052
3178.31026,0.21950
3176.38168,0.21851
3174.45309,0.21738
3172.52450,0.21615
3170.59592,0.21514
3168.66733,0.21411
3166.73874,0.21296
3164.81016,0.21201
3162.88157,0.21102
3160.95298,0.20964
3159.02440,0.20859
3157.09581,0.20814
3155.16723,0.20733
3153.23864,0.20635
3151.31005,0.20555
3149.38147,0.20455
3147.45288,0.20349
3145.52429,0.20257
3143.59571,0.20176
3141.66712,0.20094
3139.73854,0.20025
3137.80995,0.19952
3135.88136,0.19872
3133.95278,0.19800
3132.02419,0.19703
3130.09560,0.19640
3128.16702,0.19597
3126.23843,0.19527
3124.30984,0.19474
3122.38126,0.19427
3120.45267,0.19375
3118.52409,0.19312
3116.59550,0.19268
3114.66691,0.19259
3112.73833,0.19222
3110.80974,0.19154
3108.88115,0.19084
3106.95257,0.19040
3105.02398,0.19005
3103.09540,0.18966
3101.16681,0.18941
3099.23822,0.18912
3097.30964,0.18873
3095.38105,0.18823
3093.45246,0.18792
3091.52388,0.18784
3089.59529,0.18745
3087.66670,0.18685
3085.73812,0.18633
3083.80953,0.18561
3081.88095,0.18493
3079.95236,0.18468
3078.02377,0.18454
3076.09519,0.18421
3074.16660,0.18364
3072.23801,0.18292
3070.30943,0.18213
3068.38084,0.18135
3066.45225,0.18076
3064.52367,0.18021
3062.59508,0.17955
3060.66650,0.17885
3058.73791,0.17802
3056.80932,0.17693
3054.88074,0.17595
3052.95215,0.17539
3051.02356,0.17469
3049.09498,0.17370
3047.16639,0.17275
3045.23781,0.17205
3043.30922,0.17140
3041.38063,0.17062
3039.45205,0.16999
3037.52346,0.16934
3035.59487,0.16864
3033.66629,0.16807
3031.73770,0.16747
3029.80911,0.16691
3027.88053,0.16638
3025.95194,0.16594
3024.02336,0.16551
3022.09477,0.16504
3020.16618,0.16458
3018.23760,0.16422
3016.30901,0.16415
3014.38042,0.16414
3012.45184,0.16419
3010.52325,0.16443
3008.59467,0.16474
3006.66608,0.16518
3004.73749,0.16569
3002.80891,0.16617
3000.88032,0.16665
2998.95173,0.16749
2997.02315,0.16863
2995.09456,0.16980
2993.16597,0.17103
2991.23739,0.17245
2989.30880,0.17422
2987.38022,0.17621
2985.45163,0.17844
2983.52304,0.18087
2981.59446,0.18321
2979.66587,0.18571
2977.73728,0.18837
2975.80870,0.19109
2973.88011,0.19386
2971.95153,0.19663
2970.02294,0.19961
2968.09435,0.20284
2966.16577,0.20610
2964.23718,0.20933
2962.30859,0.21253
2960.38001,0.21555
2958.45142,0.21840
2956.52283,0.22118
2954.59425,0.22374
2952.66566,0.22615
2950.73708,0.22859
2948.80849,0.23155
2946.87990,0.23508
2944.95132,0.23904
2943.02273,0.24402
2941.09414,0.24993
2939.16556,0.25625
2937.23697,0.26279
2935.30838,0.26919
2933.37980,0.27553
2931.45121,0.28154
2929.52263,0.28692
2927.59404,0.29170
2925.66545,0.29551
2923.73687,0.29807
2921.80828,0.29875
2919.87969,0.29683
2917.95111,0.29167
2916.02252,0.28288
2914.09394,0.27199
2912.16535,0.26118
2910.23676,0.25178
2908.30818,0.24415
2906.37959,0.23805
2904.45100,0.23308
2902.52242,0.22866
2900.59383,0.22465
2898.66524,0.22081
2896.73666,0.21715
2894.80807,0.21370
2892.87949,0.21015
2890.95090,0.20672
2889.02231,0.20351
2887.09373,0.20056
2885.16514,0.19803
2883.23655,0.19581
2881.30797,0.19405
2879.37938,0.19277
2877.45080,0.19200
2875.52221,0.19185
2873.59362,0.19224
2871.66504,0.19278
2869.73645,0.19315
2867.80786,0.19379
2865.87928,0.19529
2863.95069,0.19811
2862.02210,0.20264
2860.09352,0.20895
2858.16493,0.21654
2856.23635,0.22447
2854.30776,0.23140
2852.37917,0.23530
2850.45059,0.23337
2848.52200,0.22398
2846.59341,0.20932
2844.66483,0.19362
2842.73624,0.17961
2840.80766,0.16821
2838.87907,0.15922
2836.95048,0.15203
2835.02190,0.14627
2833.09331,0.14152
2831.16472,0.13749
2829.23614,0.13419
2827.30755,0.13132
2825.37896,0.12878
2823.45038,0.12651
2821.52179,0.12420
2819.59321,0.12192
2817.66462,0.11991
2815.73603,0.11836
2813.80745,0.11692
2811.87886,0.11532
2809.95027,0.11395
2808.02169,0.11264
2806.09310,0.11125
2804.16451,0.10998
2802.23593,0.10874
2800.30734,0.10762
2798.37876,0.10655
2796.45017,0.10544
2794.52158,0.10448
2792.59300,0.10356
2790.66441,0.10255
2788.73582,0.10166
2786.80724,0.10087
2784.87865,0.10003
2782.95007,0.09920
2781.02148,0.09849
2779.09289,0.09774
2777.16431,0.09679
2775.23572,0.09598
2773.30713,0.09534
2771.37855,0.09462
2769.44996,0.09407
2767.52137,0.09366
2765.59279,0.09303
2763.66420,0.09232
2761.73562,0.09173
2759.80703,0.09124
2757.87844,0.09081
2755.94986,0.09020
2754.02127,0.08963
2752.09268,0.08923
2750.16410,0.08873
2748.23551,0.08840
2746.30693,0.08820
2744.37834,0.08779
2742.44975,0.08727
2740.52117,0.08675
2738.59258,0.08628
2736.66399,0.08579
2734.73541,0.08534
2732.80682,0.08495
2730.87823,0.08459
2728.94965,0.08413
2727.02106,0.08353
2725.09248,0.08295
2723.16389,0.08244
2721.23530,0.08202
2719.30672,0.08140
2717.37813,0.08061
2715.44954,0.08002
2713.52096,0.07952
2711.59237,0.07912
2709.66379,0.07861
2707.73520,0.07797
2705.80661,0.07752
2703.87803,0.07700
2701.94944,0.07649
2700.02085,0.07613
2698.09227,0.07581
2696.16368,0.07543
2694.23509,0.07493
2692.30651,0.07453
2690.37792,0.07427
2688.44934,0.07393
2686.52075,0.07352
2684.59216,0.07306
2682.66358,0.07277
2680.73499,0.07245
2678.80640,0.07190
2676.87782,0.07150
2674.94923,0.07113
2673.02064,0.07065
2671.09206,0.07029
2669.16347,0.06992
2667.23489,0.06942
2665.30630,0.06889
2663.37771,0.06843
2661.44913,0.06793
2659.52054,0.06739
2657.59195,0.06704
2655.66337,0.06668
2653.73478,0.06628
2651.80620,0.06587
2649.87761,0.06549
2647.94902,0.06524
2646.02044,0.06494
2644.09185,0.06444
2642.16326,0.06394
2640.23468,0.06352
2638.30609,0.06314
2636.37750,0.06281
2634.44892,0.06239
2632.52033,0.06186
2630.59175,0.06132
2628.66316,0.06085
2626.73457,0.06056
2624.80599,0.06027
2622.87740,0.05980
2620.94881,0.05935
2619.02023,0.05893
2617.09164,0.05845
2615.16306,0.05806
2613.23447,0.05767
2611.30588,0.05714
2609.37730,0.05675
2607.44871,0.05646
2605.52012,0.05610
2603.59154,0.05570
2601.66295,0.05525
2599.73436,0.05485
2597.80578,0.05447
2595.87719,0.05406
2593.94861,0.05359
2592.02002,0.05305
2590.09143,0.05270
2588.16285,0.05237
2586.23426,0.05193
2584.30567,0.05158
2582.37709,0.05121
2580.44850,0.05076
2578.51991,0.05046
2576.59133,0.05013
2574.66274,0.04958
2572.73416,0.04917
2570.80557,0.04898
2568.87698,0.04868
2566.94840,0.04822
2565.01981,0.04778
2563.09122,0.04740
2561.16264,0.04707
2559.23405,0.04690
2557.30547,0.04665
2555.37688,0.04615
2553.44829,0.04582
2551.51971,0.04565
2549.59112,0.04539
2547.66253,0.04507
2545.73395,0.04465
2543.80536,0.04432
2541.87677,0.04407
2539.94819,0.04375
2538.01960,0.04335
2536.09102,0.04302
2534.16243,0.04286
2532.23384,0.04258
2530.30526,0.04225
2528.37667,0.04198
2526.44808,0.04164
2524.51950,0.04132
2522.59091,0.04108
2520.66233,0.04089
2518.73374,0.04055
2516.80515,0.04003
2514.87657,0.03959
2512.94798,0.03937
2511.01939,0.03922
2509.09081,0.03891
2507.16222,0.03843
2505.23363,0.03794
2503.30505,0.03757
2501.37646,0.03730
2499.44788,0.03707
2497.51929,0.03671
2495.59070,0.03622
2493.66212,0.03593
2491.73353,0.03563
2489.80494,0.03525
2487.87636,0.03499
2485.94777,0.03454
2484.01919,0.03411
2482.09060,0.03382
2480.16201,0.03345
2478.23343,0.03312
2476.30484,0.03288
2474.37625,0.03255
2472.44767,0.03212
2470.51908,0.03176
2468.59049,0.03147
2466.66191,0.03110
2464.73332,0.03065
2462.80474,0.03029
2460.87615,0.03000
2458.94756,0.02956
2457.01898,0.02913
2455.09039,0.02886
2453.16180,0.02862
2451.23322,0.02819
2449.30463,0.02775
2447.37604,0.02747
2445.44746,0.02715
2443.51887,0.02679
2441.59029,0.02643
2439.66170,0.02605
2437.73311,0.02569
2435.80453,0.02541
2433.87594,0.02510
2431.94735,0.02476
2430.01877,0.02445
2428.09018,0.02400
2426.16160,0.02371
2424.23301,0.02350
2422.30442,0.02307
2420.37584,0.02267
2418.44725,0.02231
2416.51866,0.02201
2414.59008,0.02165
2412.66149,0.02132
2410.73290,0.02111
2408.80432,0.02077
2406.87573,0.02033
2404.94715,0.01987
2403.01856,0.01968
2401.08997,0.01952
2399.16139,0.01909
2397.23280,0.01871
2395.30421,0.01838
2393.37563,0.01808
2391.44704,0.01781
2389.51846,0.01754
2387.58987,0.01734
2385.66128,0.01726
2383.73270,0.01713
2381.80411,0.01677
2379.87552,0.01655
2377.94694,0.01645
2376.01835,0.01626
2374.08976,0.01619
2372.16118,0.01629
2370.23259,0.01638
2368.30401,0.01627
2366.37542,0.01600
2364.44683,0.01583
2362.51825,0.01572
2360.58966,0.01550
2358.66107,0.01509
2356.73249,0.01464
2354.80390,0.01421
2352.87532,0.01363
2350.94673,0.01306
2349.01814,0.01290
2347.08956,0.01296
2345.16097,0.01305
2343.23238,0.01314
2341.30380,0.01309
2339.37521,0.01300
2337.44662,0.01283
2335.51804,0.01254
2333.58945,0.01223
2331.66087,0.01192
2329.73228,0.01160
2327.80369,0.01129
2325.87511,0.01112
2323.94652,0.01084
2322.01793,0.01041
2320.08935,0.01004
2318.16076,0.00971
2316.23217,0.00953
2314.30359,0.00943
2312.37500,0.00922
2310.44642,0.00889
2308.51783,0.00853
2306.58924,0.00831
2304.66066,0.00815
2302.73207,0.00795
2300.80348,0.00773
2298.87490,0.00753
2296.94631,0.00734
2295.01773,0.00711
2293.08914,0.00691
2291.16055,0.00673
2289.23197,0.00662
2287.30338,0.00657
2285.37479,0.00640
2283.44621,0.00610
2281.51762,0.00588
2279.58903,0.00584
2277.66045,0.00579
2275.73186,0.00559
2273.80328,0.00538
2271.87469,0.00523
2269.94610,0.00499
2268.01752,0.00475
2266.08893,0.00468
2264.16034,0.00465
2262.23176,0.00455
2260.30317,0.00432
2258.37459,0.00412
2256.44600,0.00411
2254.51741,0.00407
2252.58883,0.00394
2250.66024,0.00372
2248.73165,0.00349
2246.80307,0.00339
2244.87448,0.00330
2242.94589,0.00325
2241.01731,0.00319
2239.08872,0.00301
2237.16014,0.00289
2235.23155,0.00282
2233.30296,0.00270
2231.37438,0.00256
2229.44579,0.00245
2227.51720,0.00244
2225.58862,0.00239
2223.66003,0.00221
2221.73145,0.00211
2219.80286,0.00204
2217.87427,0.00191
2215.94569,0.00175
2214.01710,0.00160
2212.08851,0.00155
2210.15993,0.00156
2208.23134,0.00145
2206.30275,0.00130
2204.37417,0.00126
2202.44558,0.00122
2200.51700,0.00116
2198.58841,0.00113
2196.65982,0.00110
2194.73124,0.00111
2192.80265,0.00112
2190.87406,0.00108
2188.94548,0.00096
2187.01689,0.00090
2185.08830,0.00093
2183.15972,0.00085
2181.23113,0.00081
2179.30255,0.00081
2177.37396,0.00077
2175.44537,0.00079
2173.51679,0.00076
2171.58820,0.00060
2169.65961,0.00056
2167.73103,0.00079
2165.80244,0.00092
2163.87386,0.00084
2161.94527,0.00083
2160.01668,0.00083
2158.08810,0.00068
2156.15951,0.00058
2154.23092,0.00064
2152.30234,0.00062
2150.37375,0.00062
2148.44516,0.00075
2146.51658,0.00083
2144.58799,0.00078
2142.65941,0.00077
2140.73082,0.00084
2138.80223,0.00079
2136.87365,0.00065
2134.94506,0.00060
2133.01647,0.00060
2131.08789,0.00050
2129.15930,0.00037
2127.23072,0.00038
2125.30213,0.00034
2123.37354,0.00027
2121.44496,0.00028
2119.51637,0.00025
2117.58778,0.00031
2115.65920,0.00037
2113.73061,0.00035
2111.80202,0.00035
2109.87344,0.00033
2107.94485,0.00027
2106.01627,0.00019
2104.08768,0.00017
2102.15909,0.00021
2100.23051,0.00025
2098.30192,0.00020
2096.37333,0.00018
2094.44475,0.00022
2092.51616,0.00017
2090.58758,0.00016
2088.65899,0.00012
2086.73040,0.00006
2084.80182,0.00006
2082.87323,0.00000
2080.94464,0.00004
2079.01606,0.00007
2077.08747,-0.00001
2075.15888,0.00001
2073.23030,-0.00002
2071.30171,-0.00014
2069.37313,-0.00015
2067.44454,0.00003
2065.51595,0.00007
2063.58737,-0.00007
2061.65878,-0.00013
2059.73019,-0.00014
2057.80161,-0.00001
2055.87302,0.00013
2053.94443,0.00018
2052.01585,0.00020
2050.08726,0.00010
2048.15868,0.00019
2046.23009,0.00039
2044.30150,0.00051
2042.37292,0.00063
2040.44433,0.00076
2038.51574,0.00100
2036.58716,0.00124
2034.65857,0.00134
2032.72999,0.00151
2030.80140,0.00169
2028.87281,0.00172
2026.94423,0.00183
2025.01564,0.00193
2023.08705,0.00193
2021.15847,0.00211
2019.22988,0.00229
2017.30129,0.00224
2015.37271,0.00220
2013.44412,0.00235
2011.51554,0.00244
2009.58695,0.00251
2007.65836,0.00276
2005.72978,0.00297
2003.80119,0.00303
2001.87260,0.00304
1999.94402,0.00308
1998.01543,0.00305
1996.08685,0.00304
1994.15826,0.00318
1992.22967,0.00303
1990.30109,0.00281
1988.37250,0.00276
1986.44391,0.00265
1984.51533,0.00259
1982.58674,0.00253
1980.65815,0.00247
1978.72957,0.00245
1976.80098,0.00242
1974.87240,0.00238
1972.94381,0.00219
1971.01522,0.00201
1969.08664,0.00192
1967.15805,0.00173
1965.22946,0.00140
1963.30088,0.00130
1961.37229,0.00125
1959.44371,0.00099
1957.51512,0.00084
1955.58653,0.00078
1953.65795,0.00068
1951.72936,0.00063
1949.80077,0.00066
1947.87219,0.00057
1945.94360,0.00048
1944.01501,0.00057
1942.08643,0.00026
1940.15784,0.00000
1938.22926,0.00004
1936.30067,-0.00015
1934.37208,-0.00019
1932.44350,-0.00014
1930.51491,-0.00017
1928.58632,-0.00015
1926.65774,-0.00011
1924.72915,0.00012
1922.80056,0.00000
1920.87198,-0.00000
1918.94339,0.00035
1917.01481,0.00011
1915.08622,0.00034
1913.15763,0.00104
1911.22905,0.00147
1909.30046,0.00194
1907.37187,0.00241
1905.44329,0.00305
1903.51470,0.00363
1901.58612,0.00422
1899.65753,0.00486
1897.72894,0.00532
1895.80036,0.00592
1893.87177,0.00635
1891.94318,0.00701
1890.01460,0.00753
1888.08601,0.00744
1886.15742,0.00790
1884.22884,0.00829
1882.30025,0.00844
1880.37167,0.00864
1878.44308,0.00878
1876.51449,0.00898
1874.58591,0.00895
1872.65732,0.00925
1870.72873,0.00963
1868.80015,0.00900
1866.87156,0.00807
1864.94298,0.00790
1863.01439,0.00768
1861.08580,0.00709
1859.15722,0.00651
1857.22863,0.00557
1855.30004,0.00482
1853.37146,0.00398
1851.44287,0.00334
1849.51428,0.00290
1847.58570,0.00242
1845.65711,0.00244
1843.72853,0.00099
1841.79994,0.00000
1839.87135,0.00037
1837.94277,0.00023
1836.01418,-0.00002
1834.08559,-0.00019
1832.15701,0.00037
1830.22842,0.00022
1828.29984,-0.00047
1826.37125,0.00012
1824.44266,0.00001
1822.51408,-0.00000
1820.58549,0.00072
1818.65690,0.00130
1816.72832,0.00189
1814.79973,0.00254
1812.87114,0.00346
1810.94256,0.00423
1809.01397,0.00512
1807.08539,0.00633
1805.15680,0.00773
1803.22821,0.00946
1801.29963,0.01092
1799.37104,0.01213
1797.44245,0.01385
1795.51387,0.01624
1793.58528,0.01868
1791.65669,0.02005
1789.72811,0.02160
1787.79952,0.02453
1785.87094,0.02713
1783.94235,0.02938
1782.01376,0.03198
1780.08518,0.03428
1778.15659,0.03673
1776.22800,0.03952
1774.29942,0.04264
1772.37083,0.04456
1770.44225,0.04602
1768.51366,0.04888
1766.58507,0.05107
1764.65649,0.05409
1762.72790,0.05735
1760.79931,0.05936
1758.87073,0.06291
1756.94214,0.06655
1755.01355,0.07013
1753.08497,0.07498
1751.15638,0.07936
1749.22780,0.08340
1747.29921,0.08829
1745.37062,0.09370
1743.44204,0.09924
1741.51345,0.10479
1739.58486,0.10979
1737.65628,0.11481
1735.72769,0.12060
1733.79911,0.12313
1731.87052,0.12483
1729.94193,0.12929
1728.01335,0.13256
1726.08476,0.13620
1724.15617,0.13985
1722.22759,0.14347
1720.29900,0.14849
1718.37041,0.15232
1716.44183,0.15482
1714.51324,0.15761
1712.58466,0.16154
1710.65607,0.16546
1708.72748,0.16916
1706.79890,0.17332
1704.87031,0.17636
1702.94172,0.18127
1701.01314,0.18628
1699.08455,0.18849
1697.15596,0.19360
1695.22738,0.19751
1693.29879,0.20071
1691.37021,0.20609
1689.44162,0.20982
1687.51303,0.21455
1685.58445,0.21996
1683.65586,0.22140
1681.72727,0.22435
1679.79869,0.22872
1677.87010,0.23337
1675.94152,0.23724
1674.01293,0.23915
1672.08434,0.24279
1670.15576,0.24601
1668.22717,0.24712
1666.29858,0.24929
1664.37000,0.25223
1662.44141,0.25334
1660.51282,0.25395
1658.58424,0.25529
1656.65565,0.25684
1654.72707,0.25915
1652.79848,0.25492
1650.86989,0.25197
1648.94131,0.25496
1647.01272,0.25449
1645.08413,0.25185
1643.15555,0.25172
1641.22696,0.25247
1639.29838,0.25298
1637.36979,0.25376
1635.44120,0.25209
1633.51262,0.24958
1631.58403,0.25011
1629.65544,0.24932
1627.72686,0.24697
1625.79827,0.24449
1623.86968,0.24148
1621.94110,0.23692
1620.01251,0.23386
1618.08393,0.23226
1616.15534,0.22664
1614.22675,0.22278
1612.29817,0.22132
1610.36958,0.21908
1608.44099,0.21667
1606.51241,0.21409
1604.58382,0.21193
1602.65524,0.20926
1600.72665,0.20667
1598.79806,0.20406
1596.86948,0.20170
1594.94089,0.19952
1593.01230,0.19711
1591.08372,0.19512
1589.15513,0.19291
1587.22654,0.19099
1585.29796,0.18880
1583.36937,0.18680
1581.44079,0.18499
1579.51220,0.18394
1577.58361,0.18340
1575.65503,0.17992
1573.72644,0.17824
1571.79785,0.17954
1569.86927,0.17899
1567.94068,0.17764
1566.01209,0.17846
1564.08351,0.17942
1562.15492,0.18156
1560.22634,0.18401
1558.29775,0.18071
1556.36916,0.18085
1554.44058,0.18317
1552.51199,0.18376
1550.58340,0.18486
1548.65482,0.18505
1546.72623,0.18612
1544.79765,0.18695
1542.86906,0.18692
1540.94047,0.18724
1539.01189,0.18328
1537.08330,0.18256
1535.15471,0.18406
1533.22613,0.18274
1531.29754,0.18081
1529.36895,0.18047
1527.44037,0.17976
1525.51178,0.17766
1523.58320,0.17738
1521.65461,0.17641
1519.72602,0.17454
1517.79744,0.17452
1515.86885,0.17293
1513.94026,0.17081
1512.01168,0.16808
1510.08309,0.16494
1508.15451,0.16210
1506.22592,0.15411
1504.29733,0.14713
1502.36875,0.14455
1500.44016,0.14144
1498.51157,0.13727
1496.58299,0.13185
1494.65440,0.12672
1492.72581,0.12446
1490.79723,0.12184
1488.86864,0.11780
1486.94006,0.11519
1485.01147,0.11389
1483.08288,0.11358
1481.15430,0.11369
1479.22571,0.11486
1477.29712,0.11748
1475.36854,0.12099
1473.43995,0.12607
1471.51137,0.13211
1469.58278,0.13931
1467.65419,0.14643
1465.72561,0.14987
1463.79702,0.15051
1461.86843,0.15132
1459.93985,0.15318
1458.01126,0.15462
1456.08267,0.15313
1454.15409,0.15307
1452.22550,0.15357
1450.29692,0.15332
1448.36833,0.15291
1446.43974,0.15171
1444.51116,0.15141
1442.58257,0.15126
1440.65398,0.15074
1438.72540,0.15111
1436.79681,0.14989
1434.86822,0.14782
1432.93964,0.14778
1431.01105,0.14751
1429.08247,0.14625
1427.15388,0.14576
1425.22529,0.14580
1423.29671,0.14555
1421.36812,0.14597
1419.43953,0.14557
1417.51095,0.14397
1415.58236,0.14409
1413.65378,0.14405
1411.72519,0.14328
1409.79660,0.14242
1407.86802,0.14141
1405.93943,0.14046
1404.01084,0.13868
1402.08226,0.13760
1400.15367,0.13673
1398.22508,0.13528
1396.29650,0.13461
1394.36791,0.13363
1392.43933,0.13295
1390.51074,0.13337
1388.58215,0.13328
1386.65357,0.13153
1384.72498,0.13029
1382.79639,0.13161
1380.86781,0.13403
1378.93922,0.13580
1377.01064,0.13637
1375.08205,0.13568
1373.15346,0.13422
1371.22488,0.13303
1369.29629,0.13172
1367.36770,0.12966
1365.43912,0.12788
1363.51053,0.12582
1361.58194,0.12355
1359.65336,0.12204
1357.72477,0.12099
1355.79619,0.12006
1353.86760,0.11907
1351.93901,0.11836
1350.01043,0.11769
1348.08184,0.11702
1346.15325,0.11649
1344.22467,0.11613
1342.29608,0.11593
1340.36750,0.11537
1338.43891,0.11466
1336.51032,0.11390
1334.58174,0.11338
1332.65315,0.11327
1330.72456,0.11287
1328.79598,0.11250
1326.86739,0.11245
1324.93880,0.11236
1323.01022,0.11229
1321.08163,0.11213
1319.15305,0.11182
1317.22446,0.11164
1315.29587,0.11162
1313.36729,0.11152
1311.43870,0.11137
1309.51011,0.11131
1307.58153,0.11125
1305.65294,0.11113
1303.72435,0.11103
1301.79577,0.11101
1299.86718,0.11112
1297.93860,0.11151
1296.01001,0.11210
1294.08142,0.11275
1292.15284,0.11365
1290.22425,0.11469
1288.29566,0.11587
1286.36708,0.11750
1284.43849,0.11940
1282.50991,0.12137
1280.58132,0.12329
1278.65273,0.12515
1276.72415,0.12712
1274.79556,0.12929
1272.86697,0.13201
1270.93839,0.13505
1269.00980,0.13790
1267.08121,0.14108
1265.15263,0.14487
1263.22404,0.14919
1261.29546,0.15416
1259.36687,0.15980
1257.43828,0.16600
1255.50970,0.17262
1253.58111,0.17973
1251.65252,0.18710
1249.72394,0.19440
1247.79535,0.20150
1245.86677,0.20812
1243.93818,0.21440
1242.00959,0.22039
1240.08101,0.22579
1238.15242,0.23068
1236.22383,0.23525
1234.29525,0.23945
1232.36666,0.24312
1230.43807,0.24633
1228.50949,0.24926
1226.58090,0.25197
1224.65232,0.25456
1222.72373,0.25714
1220.79514,0.25962
1218.86656,0.26190
1216.93797,0.26432
1215.00938,0.26679
1213.08080,0.26880
1211.15221,0.27069
1209.22363,0.27274
1207.29504,0.27459
1205.36645,0.27644
1203.43787,0.27839
1201.50928,0.27981
1199.58069,0.28093
1197.65211,0.28261
1195.72352,0.28459
1193.79493,0.28633
1191.86635,0.28776
1189.93776,0.28907
1188.00918,0.29055
1186.08059,0.29217
1184.15200,0.29396
1182.22342,0.29594
1180.29483,0.29806
1178.36624,0.30054
1176.43766,0.30347
1174.50907,0.30637
1172.58048,0.30873
1170.65190,0.31130
1168.72331,0.31454
1166.79473,0.31752
1164.86614,0.32011
1162.93755,0.32253
1161.00897,0.32455
1159.08038,0.32603
1157.15179,0.32714
1155.22321,0.32834
1153.29462,0.32980
1151.36604,0.33125
1149.43745,0.33273
1147.50886,0.33440
1145.58028,0.33603
1143.65169,0.33790
1141.72310,0.34035
1139.79452,0.34356
1137.86593,0.34713
1135.93734,0.35006
1134.00876,0.35311
1132.08017,0.35683
1130.15159,0.36033
1128.22300,0.36420
1126.29441,0.36910
1124.36583,0.37416
1122.43724,0.37895
1120.50865,0.38391
1118.58007,0.38928
1116.65148,0.39506
1114.72290,0.40119
1112.79431,0.40818
1110.86572,0.41505
1108.93714,0.42033
1107.00855,0.42564
1105.07996,0.43132
1103.15138,0.43580
1101.22279,0.43869
1099.29420,0.44050
1097.36562,0.44235
1095.43703,0.44398
1093.50845,0.44417
1091.57986,0.44319
1089.65127,0.44197
1087.72269,0.44043
1085.79410,0.43867
1083.86551,0.43733
1081.93693,0.43587
1080.00834,0.43349
1078.07976,0.43062
1076.15117,0.42733
1074.22258,0.42401
1072.29400,0.42150
1070.36541,0.41916
1068.43682,0.41728
1066.50824,0.41473
1064.57965,0.41126
1062.65106,0.40886
1060.72248,0.40564
1058.79389,0.40147
1056.86531,0.39773
1054.93672,0.39384
1053.00813,0.38980
1051.07955,0.38560
1049.15096,0.38231
1047.22237,0.37991
1045.29379,0.37739
1043.36520,0.37539
1041.43661,0.37362
1039.50803,0.37132
1037.57944,0.36933
1035.65086,0.36755
1033.72227,0.36484
1031.79368,0.36188
1029.86510,0.35843
1027.93651,0.35410
1026.00792,0.34954
1024.07934,0.34484
1022.15075,0.34043
1020.22217,0.33597
1018.29358,0.33155
1016.36499,0.32771
1014.43641,0.32391
1012.50782,0.32003
1010.57923,0.31598
1008.65065,0.31127
1006.72206,0.30650
1004.79347,0.30236
1002.86489,0.29769
1000.93630,0.29228
999.00772,0.28679
997.07913,0.28101
995.15054,0.27505
993.22196,0.26935
991.29337,0.26425
989.36478,0.25848
987.43620,0.25204
985.50761,0.24584
983.57903,0.23907
981.65044,0.23183
979.72185,0.22415
977.79327,0.21613
975.86468,0.20801
973.93609,0.19968
972.00751,0.19161
970.07892,0.18380
968.15033,0.17645
966.22175,0.16953
964.29316,0.16319
962.36458,0.15768
960.43599,0.15258
958.50740,0.14792
956.57882,0.14361
954.65023,0.13991
952.72164,0.13690
950.79306,0.13416
948.86447,0.13176
946.93589,0.12971
945.00730,0.12790
943.07871,0.12640
941.15013,0.12543
939.22154,0.12410
937.29295,0.12197
935.36437,0.12007
933.43578,0.11852
931.50719,0.11710
929.57861,0.11575
927.65002,0.11458
925.72144,0.11352
923.79285,0.11249
921.86426,0.11172
919.93568,0.11064
918.00709,0.10939
916.07850,0.10850
914.14992,0.10734
912.22133,0.10507
910.29274,0.10154
908.36416,0.09761
906.43557,0.09319
904.50699,0.08785
902.57840,0.08197
900.64981,0.07640
898.72123,0.07132
896.79264,0.06611
894.86405,0.06143
892.93547,0.05727
891.00688,0.05320
889.07830,0.04981
887.14971,0.04656
885.22112,0.04358
883.29254,0.04048
881.36395,0.03657
879.43536,0.03330
877.50678,0.03051
875.57819,0.02741
873.64960,0.02455
871.72102,0.02144
869.79243,0.01805
867.86385,0.01525
865.93526,0.01306
864.00667,0.01110
862.07809,0.00908
860.14950,0.00745
858.22091,0.00644
856.29233,0.00553
854.36374,0.00487
852.43516,0.00509
850.50657,0.00601
848.57798,0.00711
846.64940,0.00878
844.72081,0.01115
842.79222,0.01378
840.86364,0.01673
838.93505,0.02031
837.00646,0.02473
835.07788,0.02871
833.14929,0.03194
831.22071,0.03545
829.29212,0.03859
827.36353,0.04115
825.43495,0.04291
823.50636,0.04395
821.57777,0.04548
819.64919,0.04745
817.72060,0.04964
815.79201,0.05147
813.86343,0.05309
811.93484,0.05598
810.00626,0.06023
808.07767,0.06553
806.14908,0.07158
804.22050,0.07732
802.29191,0.08136
800.36332,0.08304
798.43474,0.08282
796.50615,0.08022
794.57757,0.07537
792.64898,0.07070
790.72039,0.06712
788.79181,0.06410
786.86322,0.06170
784.93463,0.06013
783.00605,0.05977
781.07746,0.05937
779.14887,0.05726
777.22029,0.05291
775.29170,0.04706
773.36312,0.04162
771.43453,0.03651
769.50594,0.03213
767.57736,0.02928
765.64877,0.02726
763.72018,0.02644
761.79160,0.02643
759.86301,0.02597
757.93443,0.02536
756.00584,0.02558
754.07725,0.02558
752.14867,0.02457
750.22008,0.02404
748.29149,0.02354
746.36291,0.02226
744.43432,0.02046
742.50573,0.01853
740.57715,0.01712
738.64856,0.01532
736.71998,0.01335
734.79139,0.01214
732.86280,0.01135
730.93422,0.01102
729.00563,0.01103
727.07704,0.01144
725.14846,0.01229
723.21987,0.01325
721.29129,0.01362
719.36270,0.01240
717.43411,0.01049
715.50553,0.00924
713.57694,0.00871
711.64835,0.00876
709.71977,0.00939
707.79118,0.01085
705.86259,0.01257
703.93401,0.01401
702.00542,0.01622
700.07684,0.01980
698.14825,0.02422
696.21966,0.02747
694.29108,0.02706
692.36249,0.02391
690.43390,0.02066
688.50532,0.01802
686.57673,0.01587
684.64814,0.01464
682.71956,0.01355
680.79097,0.01214
678.86239,0.01166
676.93380,0.01204
675.00521,0.01238
673.07663,0.01164
671.14804,0.01040
669.21945,0.00989
667.29087,0.00925
665.36228,0.00872
663.43370,0.00862
661.50511,0.00876
659.57652,0.00920
657.64794,0.00975
655.71935,0.01038
653.79076,0.01110
651.86218,0.01231
649.93359,0.01280
648.00500,0.01265
646.07642,0.01310
644.14783,0.01356
642.21925,0.01457
640.29066,0.01554
638.36207,0.01600
636.43349,0.01650
634.50490,0.01688
632.57631,0.01780
630.64773,0.01908
628.71914,0.01948
626.79056,0.01920
624.86197,0.01971
622.93338,0.02069
621.00480,0.02196
619.07621,0.02413
617.14762,0.02566
615.21904,0.02640
613.29045,0.02714
611.36186,0.02831
609.43328,0.03026
607.50469,0.03170
605.57611,0.03194
603.64752,0.03227
601.71893,0.03389
599.79035,0.03662
597.86176,0.03956
595.93317,0.04142
594.00459,0.04309
592.07600,0.04565
590.14742,0.04819
588.21883,0.05100
586.29024,0.05347
584.36166,0.05641
582.43307,0.06095
580.50448,0.06444
578.57590,0.06737
576.64731,0.07146
574.71872,0.07492
572.79014,0.07703
570.86155,0.08026
568.93297,0.08560
567.00438,0.09037
565.07579,0.09410
563.14721,0.09805
561.21862,0.10178
559.29003,0.10569
557.36145,0.10958
555.43286,0.11177
553.50427,0.11327
551.57569,0.11684
549.64710,0.12163
547.71852,0.12460
545.78993,0.12750
543.86134,0.13151
541.93276,0.13538
540.00417,0.14132
538.07558,0.14779
536.14700,0.15218
534.21841,0.15468
532.28983,0.15525
530.36124,0.15612
528.43265,0.15734
526.50407,0.15733
524.57548,0.15644
522.64689,0.15555
520.71831,0.15290
518.78972,0.14774
516.86113,0.14343
514.93255,0.14024
513.00396,0.13713
511.07538,0.13338
509.14679,0.13111
507.21820,0.13136
505.28962,0.13056
503.36103,0.13182
501.43244,0.13676
499.50386,0.14174
497.57527,0.14686
495.64669,0.15134
493.71810,0.15737
491.78951,0.16949
489.86093,0.18388
487.93234,0.19503
486.00375,0.20526
484.07517,0.21704
482.14658,0.22813
480.21799,0.23699
478.28941,0.24821
476.36082,0.25764
474.43224,0.25744
472.50365,0.25419
470.57506,0.25155
468.64648,0.25024
466.71789,0.24631
464.78930,0.24221
462.86072,0.23950
460.93213,0.22826
459.00355,0.21655
457.07496,0.20299
455.14637,0.18986
453.21779,0.18270
451.28920,0.17347
449.36061,0.16706
447.43203,0.15729
445.50344,0.14404
443.57485,0.13514
441.64627,0.12762
439.71768,0.12516
437.78910,0.12001
435.86051,0.11328
433.93192,0.11185
432.00334,0.10423
430.07475,0.09586
428.14616,0.09497
426.21758,0.09065
424.28899,0.08167
422.36040,0.07290
420.43182,0.06455
418.50323,0.05967
416.57465,0.05294
414.64606,0.04706
412.71747,0.04135
410.78889,0.02901
408.86030,0.02023
406.93171,0.01337
405.00313,0.00749
403.07454,0.00307
401.14596,0.00000
399.21737,0.00000
