3747.24323,0.00073
3745.31464,0.00238
3743.38605,0.00003
3741.45747,0.00000
3739.52888,0.00227
3737.60030,0.00311
3735.67171,0.00295
3733.74312,0.00281
3731.81454,0.00295
3729.88595,0.00301
3727.95736,0.00438
3726.02878,0.00525
3724.10019,0.00562
3722.17161,0.00694
3720.24302,0.00769
3718.31443,0.00924
3716.38585,0.01104
3714.45726,0.01361
3712.52867,0.01613
3710.60009,0.01701
3708.67150,0.01935
3706.74291,0.02209
3704.81433,0.02531
3702.88574,0.02828
3700.95716,0.02987
3699.02857,0.03157
3697.09998,0.03251
3695.17140,0.03330
3693.24281,0.03371
3691.31422,0.03448
3689.38564,0.03488
3687.45705,0.03439
3685.52846,0.03607
3683.59988,0.03875
3681.67129,0.04159
3679.74271,0.04456
3677.81412,0.04857
3675.88553,0.05153
3673.95695,0.05319
3672.02836,0.05807
3670.09977,0.06187
3668.17119,0.06433
3666.24260,0.06876
3664.31402,0.07293
3662.38543,0.07682
3660.45684,0.08055
3658.52826,0.08470
3656.59967,0.08806
3654.67108,0.09039
3652.74250,0.09441
3650.81391,0.09800
3648.88532,0.09962
3646.95674,0.10140
3645.02815,0.10462
3643.09957,0.10795
3641.17098,0.11058
3639.24239,0.11327
3637.31381,0.11593
3635.38522,0.11878
3633.45663,0.12140
3631.52805,0.12469
3629.59946,0.12729
3627.67088,0.12714
3625.74229,0.12855
3623.81370,0.13077
3621.88512,0.13219
3619.95653,0.13263
3618.02794,0.13117
3616.09936,0.13080
3614.17077,0.13090
3612.24218,0.13009
3610.31360,0.12967
3608.38501,0.12916
3606.45643,0.12870
3604.52784,0.12879
3602.59925,0.12894
3600.67067,0.12887
3598.74208,0.12891
3596.81349,0.12908
3594.88491,0.12907
3592.95632,0.12905
3591.02774,0.12982
3589.09915,0.13067
3587.17056,0.13029
3585.24198,0.13031
3583.31339,0.13145
3581.38480,0.13242
3579.45622,0.13307
3577.52763,0.13378
3575.59904,0.13480
3573.67046,0.13579
3571.74187,0.13669
3569.81329,0.13822
3567.88470,0.13959
3565.95611,0.13989
3564.02753,0.14057
3562.09894,0.14198
3560.17035,0.14315
3558.24177,0.14424
3556.31318,0.14561
3554.38459,0.14700
3552.45601,0.14790
3550.52742,0.14874
3548.59884,0.14993
3546.67025,0.15079
3544.74166,0.15171
3542.81308,0.15291
3540.88449,0.15400
3538.95590,0.15517
3537.02732,0.15620
3535.09873,0.15714
3533.17015,0.15815
3531.24156,0.15925
3529.31297,0.16044
3527.38439,0.16143
3525.45580,0.16236
3523.52721,0.16330
3521.59863,0.16417
3519.67004,0.16507
3517.74145,0.16594
3515.81287,0.16689
3513.88428,0.16781
3511.95570,0.16871
3510.02711,0.16959
3508.09852,0.17030
3506.16994,0.17132
3504.24135,0.17239
3502.31276,0.17321
3500.38418,0.17425
3498.45559,0.17517
3496.52701,0.17602
3494.59842,0.17678
3492.66983,0.17752
3490.74125,0.17858
3488.81266,0.17941
3486.88407,0.18012
3484.95549,0.18089
3483.02690,0.18163
3481.09831,0.18236
3479.16973,0.18305
3477.24114,0.18387
3475.31256,0.18460
3473.38397,0.18517
3471.45538,0.18566
3469.52680,0.18627
3467.59821,0.18709
3465.66962,0.18782
3463.74104,0.18847
3461.81245,0.18896
3459.88386,0.18957
3457.95528,0.19030
3456.02669,0.19099
3454.09811,0.19169
3452.16952,0.19224
3450.24093,0.19288
3448.31235,0.19352
3446.38376,0.19401
3444.45517,0.19447
3442.52659,0.19489
3440.59800,0.19523
3438.66942,0.19569
3436.74083,0.19632
3434.81224,0.19689
3432.88366,0.19734
3430.95507,0.19768
3429.02648,0.19812
3427.09790,0.19859
3425.16931,0.19906
3423.24072,0.19953
3421.31214,0.19964
3419.38355,0.19986
3417.45497,0.20041
3415.52638,0.20088
3413.59779,0.20112
3411.66921,0.20127
3409.74062,0.20164
3407.81203,0.20206
3405.88345,0.20240
3403.95486,0.20263
3402.02628,0.20277
3400.09769,0.20307
3398.16910,0.20330
3396.24052,0.20337
3394.31193,0.20350
3392.38334,0.20375
3390.45476,0.20396
3388.52617,0.20405
3386.59758,0.20411
3384.66900,0.20428
3382.74041,0.20450
3380.81183,0.20447
3378.88324,0.20446
3376.95465,0.20461
3375.02607,0.20473
3373.09748,0.20483
3371.16889,0.20491
3369.24031,0.20493
3367.31172,0.20490
3365.38314,0.20501
3363.45455,0.20525
3361.52596,0.20540
3359.59738,0.20544
3357.66879,0.20553
3355.74020,0.20565
3353.81162,0.20558
3351.88303,0.20548
3349.95444,0.20550
3348.02586,0.20555
3346.09727,0.20561
3344.16869,0.20564
3342.24010,0.20555
3340.31151,0.20549
3338.38293,0.20556
3336.45434,0.20547
3334.52575,0.20520
3332.59717,0.20501
3330.66858,0.20493
3328.73999,0.20489
3326.81141,0.20483
3324.88282,0.20473
3322.95424,0.20453
3321.02565,0.20443
3319.09706,0.20453
3317.16848,0.20452
3315.23989,0.20433
3313.31130,0.20401
3311.38272,0.20376
3309.45413,0.20362
3307.52555,0.20336
3305.59696,0.20316
3303.66837,0.20307
3301.73979,0.20297
3299.81120,0.20281
3297.88261,0.20244
3295.95403,0.20209
3294.02544,0.20186
3292.09685,0.20160
3290.16827,0.20125
3288.23968,0.20081
3286.31110,0.20035
3284.38251,0.19992
3282.45392,0.19961
3280.52534,0.19912
3278.59675,0.19847
3276.66816,0.19792
3274.73958,0.19736
3272.81099,0.19672
3270.88241,0.19592
3268.95382,0.19506
3267.02523,0.19432
3265.09665,0.19365
3263.16806,0.19295
3261.23947,0.19221
3259.31089,0.19146
3257.38230,0.19076
3255.45371,0.19011
3253.52513,0.18921
3251.59654,0.18824
3249.66796,0.18728
3247.73937,0.18638
3245.81078,0.18566
3243.88220,0.18488
3241.95361,0.18422
3240.02502,0.18360
3238.09644,0.18288
3236.16785,0.18217
3234.23927,0.18136
3232.31068,0.18060
3230.38209,0.17984
3228.45351,0.17929
3226.52492,0.17881
3224.59633,0.17810
3222.66775,0.17730
3220.73916,0.17651
3218.81057,0.17585
3216.88199,0.17505
3214.95340,0.17426
3213.02482,0.17360
3211.09623,0.17285
3209.16764,0.17224
3207.23906,0.17164
3205.31047,0.17087
3203.38188,0.17005
3201.45330,0.16924
3199.52471,0.16842
3197.59612,0.16770
3195.66754,0.16717
3193.73895,0.16656
3191.81037,0.16573
3189.88178,0.16489
3187.95319,0.16423
3186.02461,0.16343
3184.09602,0.16247
3182.16743,0.16169
3180.23885,0.16087
3178.31026,0.16005
3176.38168,0.15936
3174.45309,0.15881
3172.52450,0.15820
3170.59592,0.15731
3168.66733,0.15645
3166.73874,0.15563
3164.81016,0.15492
3162.88157,0.15434
3160.95298,0.15360
3159.02440,0.15284
3157.09581,0.15206
3155.16723,0.15122
3153.23864,0.15059
3151.31005,0.15007
3149.38147,0.14942
3147.45288,0.14865
3145.52429,0.14801
3143.59571,0.14746
3141.66712,0.14683
3139.73854,0.14626
3137.80995,0.14564
3135.88136,0.14505
3133.95278,0.14460
3132.02419,0.14398
3130.09560,0.14344
3128.16702,0.14298
3126.23843,0.14246
3124.30984,0.14203
3122.38126,0.14148
3120.45267,0.14098
3118.52409,0.14052
3116.59550,0.14003
3114.66691,0.13974
3112.73833,0.13927
3110.80974,0.13872
3108.88115,0.13842
3106.95257,0.13807
3105.02398,0.13764
3103.09540,0.13726
3101.16681,0.13686
3099.23822,0.13633
3097.30964,0.13589
3095.38105,0.13565
3093.45246,0.13533
3091.52388,0.13497
3089.59529,0.13458
3087.66670,0.13419
3085.73812,0.13397
3083.80953,0.13370
3081.88095,0.13330
3079.95236,0.13283
3078.02377,0.13225
3076.09519,0.13171
3074.16660,0.13123
3072.23801,0.13074
3070.30943,0.13031
3068.38084,0.12994
3066.45225,0.12938
3064.52367,0.12875
3062.59508,0.12819
3060.66650,0.12753
3058.73791,0.12689
3056.80932,0.12628
3054.88074,0.12564
3052.95215,0.12501
3051.02356,0.12439
3049.09498,0.12375
3047.16639,0.12315
3045.23781,0.12270
3043.30922,0.12221
3041.38063,0.12167
3039.45205,0.12109
3037.52346,0.12040
3035.59487,0.11991
3033.66629,0.11961
3031.73770,0.11921
3029.80911,0.11875
3027.88053,0.11835
3025.95194,0.11798
3024.02336,0.11767
3022.09477,0.11745
3020.16618,0.11727
3018.23760,0.11718
3016.30901,0.11709
3014.38042,0.11700
3012.45184,0.11718
3010.52325,0.11736
3008.59467,0.11741
3006.66608,0.11756
3004.73749,0.11785
3002.80891,0.11818
3000.88032,0.11864
2998.95173,0.11932
2997.02315,0.12002
2995.09456,0.12066
2993.16597,0.12137
2991.23739,0.12224
2989.30880,0.12325
2987.38022,0.12449
2985.45163,0.12584
2983.52304,0.12726
2981.59446,0.12890
2979.66587,0.13063
2977.73728,0.13248
2975.80870,0.13437
2973.88011,0.13623
2971.95153,0.13831
2970.02294,0.14036
2968.09435,0.14232
2966.16577,0.14442
2964.23718,0.14656
2962.30859,0.14859
2960.38001,0.15040
2958.45142,0.15199
2956.52283,0.15357
2954.59425,0.15520
2952.66566,0.15672
2950.73708,0.15829
2948.80849,0.16016
2946.87990,0.16247
2944.95132,0.16529
2943.02273,0.16847
2941.09414,0.17208
2939.16556,0.17609
2937.23697,0.18023
2935.30838,0.18434
2933.37980,0.18829
2931.45121,0.19201
2929.52263,0.19534
2927.59404,0.19818
2925.66545,0.20032
2923.73687,0.20154
2921.80828,0.20163
2919.87969,0.20028
2917.95111,0.19684
2916.02252,0.19060
2914.09394,0.18254
2912.16535,0.17476
2910.23676,0.16841
2908.30818,0.16350
2906.37959,0.15962
2904.45100,0.15636
2902.52242,0.15348
2900.59383,0.15081
2898.66524,0.14832
2896.73666,0.14595
2894.80807,0.14362
2892.87949,0.14146
2890.95090,0.13943
2889.02231,0.13740
2887.09373,0.13547
2885.16514,0.13383
2883.23655,0.13258
2881.30797,0.13157
2879.37938,0.13083
2877.45080,0.13046
2875.52221,0.13024
2873.59362,0.13019
2871.66504,0.13029
2869.73645,0.13052
2867.80786,0.13097
2865.87928,0.13183
2863.95069,0.13338
2862.02210,0.13586
2860.09352,0.13949
2858.16493,0.14416
2856.23635,0.14896
2854.30776,0.15247
2852.37917,0.15352
2850.45059,0.15108
2848.52200,0.14452
2846.59341,0.13543
2844.66483,0.12634
2842.73624,0.11841
2840.80766,0.11181
2838.87907,0.10648
2836.95048,0.10223
2835.02190,0.09864
2833.09331,0.09551
2831.16472,0.09287
2829.23614,0.09065
2827.30755,0.08872
2825.37896,0.08690
2823.45038,0.08523
2821.52179,0.08371
2819.59321,0.08233
2817.66462,0.08111
2815.73603,0.07998
2813.80745,0.07888
2811.87886,0.07782
2809.95027,0.07681
2808.02169,0.07589
2806.09310,0.07507
2804.16451,0.07430
2802.23593,0.07348
2800.30734,0.07269
2798.37876,0.07194
2796.45017,0.07126
2794.52158,0.07060
2792.59300,0.06991
2790.66441,0.06930
2788.73582,0.06871
2786.80724,0.06809
2784.87865,0.06749
2782.95007,0.06691
2781.02148,0.06639
2779.09289,0.06581
2777.16431,0.06525
2775.23572,0.06485
2773.30713,0.06445
2771.37855,0.06397
2769.44996,0.06346
2767.52137,0.06297
2765.59279,0.06257
2763.66420,0.06218
2761.73562,0.06180
2759.80703,0.06137
2757.87844,0.06102
2755.94986,0.06077
2754.02127,0.06040
2752.09268,0.06002
2750.16410,0.05966
2748.23551,0.05938
2746.30693,0.05912
2744.37834,0.05878
2742.44975,0.05855
2740.52117,0.05835
2738.59258,0.05806
2736.66399,0.05774
2734.73541,0.05743
2732.80682,0.05716
2730.87823,0.05684
2728.94965,0.05650
2727.02106,0.05613
2725.09248,0.05575
2723.16389,0.05539
2721.23530,0.05497
2719.30672,0.05464
2717.37813,0.05432
2715.44954,0.05384
2713.52096,0.05341
2711.59237,0.05309
2709.66379,0.05275
2707.73520,0.05237
2705.80661,0.05199
2703.87803,0.05168
2701.94944,0.05139
2700.02085,0.05112
2698.09227,0.05094
2696.16368,0.05063
2694.23509,0.05035
2692.30651,0.05015
2690.37792,0.04976
2688.44934,0.04947
2686.52075,0.04933
2684.59216,0.04908
2682.66358,0.04879
2680.73499,0.04851
2678.80640,0.04826
2676.87782,0.04800
2674.94923,0.04765
2673.02064,0.04729
2671.09206,0.04707
2669.16347,0.04691
2667.23489,0.04667
2665.30630,0.04641
2663.37771,0.04612
2661.44913,0.04584
2659.52054,0.04560
2657.59195,0.04532
2655.66337,0.04500
2653.73478,0.04474
2651.80620,0.04454
2649.87761,0.04437
2647.94902,0.04414
2646.02044,0.04381
2644.09185,0.04356
2642.16326,0.04327
2640.23468,0.04294
2638.30609,0.04271
2636.37750,0.04252
2634.44892,0.04235
2632.52033,0.04213
2630.59175,0.04186
2628.66316,0.04156
2626.73457,0.04123
2624.80599,0.04099
2622.87740,0.04075
2620.94881,0.04047
2619.02023,0.04023
2617.09164,0.03995
2615.16306,0.03961
2613.23447,0.03930
2611.30588,0.03909
2609.37730,0.03888
2607.44871,0.03864
2605.52012,0.03834
2603.59154,0.03801
2601.66295,0.03772
2599.73436,0.03743
2597.80578,0.03714
2595.87719,0.03693
2593.94861,0.03671
2592.02002,0.03638
2590.09143,0.03607
2588.16285,0.03584
2586.23426,0.03556
2584.30567,0.03525
2582.37709,0.03500
2580.44850,0.03480
2578.51991,0.03447
2576.59133,0.03412
2574.66274,0.03387
2572.73416,0.03358
2570.80557,0.03331
2568.87698,0.03307
2566.94840,0.03279
2565.01981,0.03251
2563.09122,0.03223
2561.16264,0.03195
2559.23405,0.03170
2557.30547,0.03150
2555.37688,0.03124
2553.44829,0.03098
2551.51971,0.03076
2549.59112,0.03053
2547.66253,0.03031
2545.73395,0.03004
2543.80536,0.02981
2541.87677,0.02967
2539.94819,0.02940
2538.01960,0.02906
2536.09102,0.02884
2534.16243,0.02871
2532.23384,0.02853
2530.30526,0.02823
2528.37667,0.02797
2526.44808,0.02776
2524.51950,0.02755
2522.59091,0.02730
2520.66233,0.02700
2518.73374,0.02676
2516.80515,0.02654
2514.87657,0.02629
2512.94798,0.02602
2511.01939,0.02575
2509.09081,0.02552
2507.16222,0.02529
2505.23363,0.02506
2503.30505,0.02479
2501.37646,0.02445
2499.44788,0.02415
2497.51929,0.02384
2495.59070,0.02355
2493.66212,0.02332
2491.73353,0.02304
2489.80494,0.02278
2487.87636,0.02256
2485.94777,0.02233
2484.01919,0.02210
2482.09060,0.02180
2480.16201,0.02154
2478.23343,0.02133
2476.30484,0.02101
2474.37625,0.02070
2472.44767,0.02050
2470.51908,0.02026
2468.59049,0.01997
2466.66191,0.01970
2464.73332,0.01938
2462.80474,0.01905
2460.87615,0.01891
2458.94756,0.01874
2457.01898,0.01840
2455.09039,0.01808
2453.16180,0.01783
2451.23322,0.01763
2449.30463,0.01734
2447.37604,0.01706
2445.44746,0.01690
2443.51887,0.01671
2441.59029,0.01642
2439.66170,0.01616
2437.73311,0.01595
2435.80453,0.01576
2433.87594,0.01552
2431.94735,0.01521
2430.01877,0.01492
2428.09018,0.01467
2426.16160,0.01445
2424.23301,0.01416
2422.30442,0.01387
2420.37584,0.01365
2418.44725,0.01339
2416.51866,0.01316
2414.59008,0.01302
2412.66149,0.01281
2410.73290,0.01254
2408.80432,0.01226
2406.87573,0.01200
2404.94715,0.01174
2403.01856,0.01148
2401.08997,0.01126
2399.16139,0.01104
2397.23280,0.01083
2395.30421,0.01063
2393.37563,0.01044
2391.44704,0.01024
2389.51846,0.01005
2387.58987,0.00986
2385.66128,0.00966
2383.73270,0.00947
2381.80411,0.00924
2379.87552,0.00899
2377.94694,0.00876
2376.01835,0.00859
2374.08976,0.00840
2372.16118,0.00808
2370.23259,0.00773
2368.30401,0.00737
2366.37542,0.00706
2364.44683,0.00679
2362.51825,0.00649
2360.58966,0.00622
2358.66107,0.00599
2356.73249,0.00581
2354.80390,0.00565
2352.87532,0.00552
2350.94673,0.00566
2349.01814,0.00600
2347.08956,0.00613
2345.16097,0.00588
2343.23238,0.00563
2341.30380,0.00548
2339.37521,0.00531
2337.44662,0.00511
2335.51804,0.00483
2333.58945,0.00460
2331.66087,0.00446
2329.73228,0.00431
2327.80369,0.00418
2325.87511,0.00409
2323.94652,0.00396
2322.01793,0.00377
2320.08935,0.00369
2318.16076,0.00368
2316.23217,0.00361
2314.30359,0.00353
2312.37500,0.00344
2310.44642,0.00341
2308.51783,0.00337
2306.58924,0.00325
2304.66066,0.00321
2302.73207,0.00314
2300.80348,0.00300
2298.87490,0.00286
2296.94631,0.00278
2295.01773,0.00269
2293.08914,0.00262
2291.16055,0.00256
2289.23197,0.00242
2287.30338,0.00232
2285.37479,0.00223
2283.44621,0.00212
2281.51762,0.00203
2279.58903,0.00194
2277.66045,0.00184
2275.73186,0.00177
2273.80328,0.00165
2271.87469,0.00155
2269.94610,0.00150
2268.01752,0.00139
2266.08893,0.00130
2264.16034,0.00125
2262.23176,0.00116
2260.30317,0.00113
2258.37459,0.00109
2256.44600,0.00100
2254.51741,0.00091
2252.58883,0.00089
2250.66024,0.00087
2248.73165,0.00083
2246.80307,0.00085
2244.87448,0.00077
2242.94589,0.00069
2241.01731,0.00068
2239.08872,0.00062
2237.16014,0.00056
2235.23155,0.00048
2233.30296,0.00038
2231.37438,0.00032
2229.44579,0.00027
2227.51720,0.00029
2225.58862,0.00026
2223.66003,0.00023
2221.73145,0.00025
2219.80286,0.00021
2217.87427,0.00017
2215.94569,0.00012
2214.01710,-0.00000
2212.08851,-0.00004
2210.15993,-0.00003
2208.23134,-0.00005
2206.30275,-0.00007
2204.37417,-0.00006
2202.44558,-0.00006
2200.51700,-0.00004
2198.58841,-0.00002
2196.65982,0.00000
2194.73124,0.00002
2192.80265,0.00001
2190.87406,0.00000
2188.94548,0.00002
2187.01689,0.00003
2185.08830,0.00000
2183.15972,0.00005
2181.23113,0.00007
2179.30255,0.00008
2177.37396,0.00012
2175.44537,0.00014
2173.51679,0.00016
2171.58820,0.00006
2169.65961,0.00000
2167.73103,0.00011
2165.80244,0.00018
2163.87386,0.00022
2161.94527,0.00026
2160.01668,0.00028
2158.08810,0.00032
2156.15951,0.00036
2154.23092,0.00034
2152.30234,0.00030
2150.37375,0.00031
2148.44516,0.00030
2146.51658,0.00034
2144.58799,0.00040
2142.65941,0.00033
2140.73082,0.00030
2138.80223,0.00031
2136.87365,0.00029
2134.94506,0.00024
2133.01647,0.00023
2131.08789,0.00031
2129.15930,0.00029
2127.23072,0.00020
2125.30213,0.00018
2123.37354,0.00015
2121.44496,0.00016
2119.51637,0.00018
2117.58778,0.00013
2115.65920,0.00007
2113.73061,0.00009
2111.80202,0.00009
2109.87344,0.00002
2107.94485,0.00000
2106.01627,0.00002
2104.08768,0.00006
2102.15909,0.00004
2100.23051,0.00001
2098.30192,0.00005
2096.37333,0.00006
2094.44475,0.00002
2092.51616,0.00004
2090.58758,0.00008
2088.65899,0.00001
2086.73040,-0.00010
2084.80182,-0.00005
2082.87323,0.00001
2080.94464,0.00000
2079.01606,-0.00004
2077.08747,-0.00010
2075.15888,-0.00016
2073.23030,-0.00020
2071.30171,-0.00022
2069.37313,-0.00026
2067.44454,-0.00026
2065.51595,-0.00019
2063.58737,-0.00014
2061.65878,-0.00018
2059.73019,-0.00021
2057.80161,-0.00023
2055.87302,-0.00032
2053.94443,-0.00032
2052.01585,-0.00024
2050.08726,-0.00019
2048.15868,-0.00007
2046.23009,0.00010
2044.30150,0.00022
2042.37292,0.00029
2040.44433,0.00042
2038.51574,0.00060
2036.58716,0.00082
2034.65857,0.00100
2032.72999,0.00111
2030.80140,0.00120
2028.87281,0.00130
2026.94423,0.00139
2025.01564,0.00137
2023.08705,0.00134
2021.15847,0.00137
2019.22988,0.00143
2017.30129,0.00152
2015.37271,0.00153
2013.44412,0.00166
2011.51554,0.00191
2009.58695,0.00205
2007.65836,0.00222
2005.72978,0.00236
2003.80119,0.00246
2001.87260,0.00260
1999.94402,0.00268
1998.01543,0.00267
1996.08685,0.00255
1994.15826,0.00245
1992.22967,0.00239
1990.30109,0.00230
1988.37250,0.00223
1986.44391,0.00222
1984.51533,0.00218
1982.58674,0.00206
1980.65815,0.00202
1978.72957,0.00200
1976.80098,0.00189
1974.87240,0.00186
1972.94381,0.00183
1971.01522,0.00172
1969.08664,0.00160
1967.15805,0.00142
1965.22946,0.00115
1963.30088,0.00098
1961.37229,0.00090
1959.44371,0.00082
1957.51512,0.00076
1955.58653,0.00068
1953.65795,0.00059
1951.72936,0.00055
1949.80077,0.00058
1947.87219,0.00052
1945.94360,0.00036
1944.01501,0.00025
1942.08643,0.00012
1940.15784,0.00006
1938.22926,0.00004
1936.30067,-0.00002
1934.37208,-0.00000
1932.44350,0.00001
1930.51491,-0.00001
1928.58632,-0.00008
1926.65774,-0.00012
1924.72915,0.00000
1922.80056,-0.00009
1920.87198,-0.00013
1918.94339,0.00003
1917.01481,0.00005
1915.08622,0.00031
1913.15763,0.00075
1911.22905,0.00108
1909.30046,0.00148
1907.37187,0.00186
1905.44329,0.00229
1903.51470,0.00275
1901.58612,0.00315
1899.65753,0.00355
1897.72894,0.00393
1895.80036,0.00437
1893.87177,0.00473
1891.94318,0.00517
1890.01460,0.00559
1888.08601,0.00574
1886.15742,0.00596
1884.22884,0.00611
1882.30025,0.00625
1880.37167,0.00645
1878.44308,0.00653
1876.51449,0.00658
1874.58591,0.00663
1872.65732,0.00680
1870.72873,0.00691
1868.80015,0.00653
1866.87156,0.00603
1864.94298,0.00595
1863.01439,0.00572
1861.08580,0.00512
1859.15722,0.00454
1857.22863,0.00386
1855.30004,0.00325
1853.37146,0.00255
1851.44287,0.00194
1849.51428,0.00151
1847.58570,0.00120
1845.65711,0.00111
1843.72853,0.00037
1841.79994,0.00000
1839.87135,0.00016
1837.94277,-0.00000
1836.01418,-0.00021
1834.08559,-0.00024
1832.15701,0.00011
1830.22842,0.00016
1828.29984,0.00013
1826.37125,0.00072
1824.44266,0.00107
1822.51408,0.00149
1820.58549,0.00222
1818.65690,0.00293
1816.72832,0.00365
1814.79973,0.00455
1812.87114,0.00569
1810.94256,0.00671
1809.01397,0.00780
1807.08539,0.00911
1805.15680,0.01058
1803.22821,0.01229
1801.29963,0.01403
1799.37104,0.01569
1797.44245,0.01758
1795.51387,0.01994
1793.58528,0.02230
1791.65669,0.02409
1789.72811,0.02608
1787.79952,0.02871
1785.87094,0.03115
1783.94235,0.03351
1782.01376,0.03600
1780.08518,0.03838
1778.15659,0.04082
1776.22800,0.04331
1774.29942,0.04587
1772.37083,0.04769
1770.44225,0.04940
1768.51366,0.05182
1766.58507,0.05385
1764.65649,0.05628
1762.72790,0.05869
1760.79931,0.06054
1758.87073,0.06316
1756.94214,0.06569
1755.01355,0.06832
1753.08497,0.07165
1751.15638,0.07478
1749.22780,0.07793
1747.29921,0.08171
1745.37062,0.08580
1743.44204,0.08999
1741.51345,0.09427
1739.58486,0.09805
1737.65628,0.10189
1735.72769,0.10602
1733.79911,0.10838
1731.87052,0.11039
1729.94193,0.11359
1728.01335,0.11619
1726.08476,0.11876
1724.15617,0.12128
1722.22759,0.12377
1720.29900,0.12693
1718.37041,0.12939
1716.44183,0.13097
1714.51324,0.13276
1712.58466,0.13496
1710.65607,0.13694
1708.72748,0.13865
1706.79890,0.14038
1704.87031,0.14154
1702.94172,0.14374
1701.01314,0.14589
1699.08455,0.14665
1697.15596,0.14906
1695.22738,0.15084
1693.29879,0.15252
1691.37021,0.15565
1689.44162,0.15769
1687.51303,0.16037
1685.58445,0.16315
1683.65586,0.16412
1681.72727,0.16627
1679.79869,0.16897
1677.87010,0.17167
1675.94152,0.17399
1674.01293,0.17557
1672.08434,0.17782
1670.15576,0.17986
1668.22717,0.18118
1666.29858,0.18290
1664.37000,0.18484
1662.44141,0.18597
1660.51282,0.18691
1658.58424,0.18800
1656.65565,0.18918
1654.72707,0.19054
1652.79848,0.18898
1650.86989,0.18795
1648.94131,0.18971
1647.01272,0.18999
1645.08413,0.18921
1643.15555,0.18951
1641.22696,0.19013
1639.29838,0.19070
1637.36979,0.19147
1635.44120,0.19114
1633.51262,0.19050
1631.58403,0.19108
1629.65544,0.19094
1627.72686,0.19006
1625.79827,0.18907
1623.86968,0.18770
1621.94110,0.18589
1620.01251,0.18487
1618.08393,0.18417
1616.15534,0.18160
1614.22675,0.17990
1612.29817,0.17925
1610.36958,0.17799
1608.44099,0.17659
1606.51241,0.17520
1604.58382,0.17402
1602.65524,0.17265
1600.72665,0.17140
1598.79806,0.17011
1596.86948,0.16886
1594.94089,0.16761
1593.01230,0.16597
1591.08372,0.16438
1589.15513,0.16256
1587.22654,0.16083
1585.29796,0.15896
1583.36937,0.15690
1581.44079,0.15473
1579.51220,0.15310
1577.58361,0.15185
1575.65503,0.14894
1573.72644,0.14694
1571.79785,0.14657
1569.86927,0.14529
1567.94068,0.14386
1566.01209,0.14328
1564.08351,0.14273
1562.15492,0.14294
1560.22634,0.14306
1558.29775,0.14084
1556.36916,0.14018
1554.44058,0.14061
1552.51199,0.14025
1550.58340,0.14021
1548.65482,0.13982
1546.72623,0.13968
1544.79765,0.13926
1542.86906,0.13862
1540.94047,0.13799
1539.01189,0.13551
1537.08330,0.13452
1535.15471,0.13456
1533.22613,0.13328
1531.29754,0.13186
1529.36895,0.13118
1527.44037,0.13039
1525.51178,0.12921
1523.58320,0.12906
1521.65461,0.12883
1519.72602,0.12859
1517.79744,0.12936
1515.86885,0.12936
1513.94026,0.12858
1512.01168,0.12717
1510.08309,0.12551
1508.15451,0.12378
1506.22592,0.11955
1504.29733,0.11537
1502.36875,0.11295
1500.44016,0.10994
1498.51157,0.10647
1496.58299,0.10263
1494.65440,0.09906
1492.72581,0.09693
1490.79723,0.09477
1488.86864,0.09234
1486.94006,0.09076
1485.01147,0.08987
1483.08288,0.08966
1481.15430,0.08994
1479.22571,0.09090
1477.29712,0.09271
1475.36854,0.09534
1473.43995,0.09908
1471.51137,0.10362
1469.58278,0.10885
1467.65419,0.11376
1465.72561,0.11648
1463.79702,0.11762
1461.86843,0.11861
1459.93985,0.11990
1458.01126,0.12070
1456.08267,0.12018
1454.15409,0.12052
1452.22550,0.12116
1450.29692,0.12095
1448.36833,0.12042
1446.43974,0.11972
1444.51116,0.11937
1442.58257,0.11904
1440.65398,0.11882
1438.72540,0.11921
1436.79681,0.11904
1434.86822,0.11877
1432.93964,0.11944
1431.01105,0.11996
1429.08247,0.12005
1427.15388,0.12052
1425.22529,0.12110
1423.29671,0.12155
1421.36812,0.12221
1419.43953,0.12223
1417.51095,0.12164
1415.58236,0.12158
1413.65378,0.12137
1411.72519,0.12096
1409.79660,0.12054
1407.86802,0.11996
1405.93943,0.11947
1404.01084,0.11882
1402.08226,0.11835
1400.15367,0.11758
1398.22508,0.11645
1396.29650,0.11574
1394.36791,0.11484
1392.43933,0.11416
1390.51074,0.11413
1388.58215,0.11389
1386.65357,0.11311
1384.72498,0.11263
1382.79639,0.11307
1380.86781,0.11380
1378.93922,0.11410
1377.01064,0.11391
1375.08205,0.11324
1373.15346,0.11211
1371.22488,0.11097
1369.29629,0.10990
1367.36770,0.10875
1365.43912,0.10767
1363.51053,0.10632
1361.58194,0.10491
1359.65336,0.10391
1357.72477,0.10305
1355.79619,0.10213
1353.86760,0.10131
1351.93901,0.10069
1350.01043,0.09997
1348.08184,0.09925
1346.15325,0.09870
1344.22467,0.09813
1342.29608,0.09771
1340.36750,0.09740
1338.43891,0.09692
1336.51032,0.09633
1334.58174,0.09593
1332.65315,0.09572
1330.72456,0.09549
1328.79598,0.09521
1326.86739,0.09493
1324.93880,0.09467
1323.01022,0.09431
1321.08163,0.09388
1319.15305,0.09345
1317.22446,0.09308
1315.29587,0.09276
1313.36729,0.09227
1311.43870,0.09185
1309.51011,0.09161
1307.58153,0.09143
1305.65294,0.09135
1303.72435,0.09119
1301.79577,0.09101
1299.86718,0.09099
1297.93860,0.09108
1296.01001,0.09134
1294.08142,0.09177
1292.15284,0.09229
1290.22425,0.09306
1288.29566,0.09403
1286.36708,0.09501
1284.43849,0.09621
1282.50991,0.09759
1280.58132,0.09885
1278.65273,0.10014
1276.72415,0.10159
1274.79556,0.10305
1272.86697,0.10450
1270.93839,0.10601
1269.00980,0.10740
1267.08121,0.10857
1265.15263,0.10978
1263.22404,0.11128
1261.29546,0.11296
1259.36687,0.11466
1257.43828,0.11677
1255.50970,0.11946
1253.58111,0.12248
1251.65252,0.12577
1249.72394,0.12920
1247.79535,0.13270
1245.86677,0.13602
1243.93818,0.13907
1242.00959,0.14224
1240.08101,0.14546
1238.15242,0.14827
1236.22383,0.15059
1234.29525,0.15276
1232.36666,0.15496
1230.43807,0.15693
1228.50949,0.15859
1226.58090,0.16023
1224.65232,0.16183
1222.72373,0.16307
1220.79514,0.16429
1218.86656,0.16567
1216.93797,0.16704
1215.00938,0.16838
1213.08080,0.16948
1211.15221,0.17041
1209.22363,0.17151
1207.29504,0.17268
1205.36645,0.17374
1203.43787,0.17473
1201.50928,0.17579
1199.58069,0.17676
1197.65211,0.17739
1195.72352,0.17791
1193.79493,0.17874
1191.86635,0.17982
1189.93776,0.18085
1188.00918,0.18175
1186.08059,0.18273
1184.15200,0.18402
1182.22342,0.18555
1180.29483,0.18715
1178.36624,0.18891
1176.43766,0.19112
1174.50907,0.19348
1172.58048,0.19588
1170.65190,0.19847
1168.72331,0.20083
1166.79473,0.20310
1164.86614,0.20554
1162.93755,0.20778
1161.00897,0.20932
1159.08038,0.21002
1157.15179,0.21071
1155.22321,0.21158
1153.29462,0.21258
1151.36604,0.21362
1149.43745,0.21459
1147.50886,0.21603
1145.58028,0.21756
1143.65169,0.21920
1141.72310,0.22140
1139.79452,0.22396
1137.86593,0.22676
1135.93734,0.22941
1134.00876,0.23239
1132.08017,0.23563
1130.15159,0.23847
1128.22300,0.24185
1126.29441,0.24618
1124.36583,0.25042
1122.43724,0.25442
1120.50865,0.25870
1118.58007,0.26316
1116.65148,0.26778
1114.72290,0.27268
1112.79431,0.27767
1110.86572,0.28263
1108.93714,0.28728
1107.00855,0.29159
1105.07996,0.29563
1103.15138,0.29899
1101.22279,0.30150
1099.29420,0.30364
1097.36562,0.30545
1095.43703,0.30697
1093.50845,0.30801
1091.57986,0.30796
1089.65127,0.30764
1087.72269,0.30714
1085.79410,0.30637
1083.86551,0.30574
1081.93693,0.30468
1080.00834,0.30362
1078.07976,0.30262
1076.15117,0.30129
1074.22258,0.29994
1072.29400,0.29887
1070.36541,0.29808
1068.43682,0.29702
1066.50824,0.29602
1064.57965,0.29528
1062.65106,0.29438
1060.72248,0.29321
1058.79389,0.29174
1056.86531,0.28990
1054.93672,0.28770
1053.00813,0.28607
1051.07955,0.28523
1049.15096,0.28465
1047.22237,0.28441
1045.29379,0.28464
1043.36520,0.28570
1041.43661,0.28727
1039.50803,0.28865
1037.57944,0.28964
1035.65086,0.29027
1033.72227,0.29059
1031.79368,0.28992
1029.86510,0.28821
1027.93651,0.28593
1026.00792,0.28345
1024.07934,0.28079
1022.15075,0.27765
1020.22217,0.27456
1018.29358,0.27126
1016.36499,0.26786
1014.43641,0.26511
1012.50782,0.26213
1010.57923,0.25910
1008.65065,0.25616
1006.72206,0.25251
1004.79347,0.24858
1002.86489,0.24437
1000.93630,0.23974
999.00772,0.23524
997.07913,0.23064
995.15054,0.22571
993.22196,0.22096
991.29337,0.21601
989.36478,0.21071
987.43620,0.20541
985.50761,0.19956
983.57903,0.19327
981.65044,0.18655
979.72185,0.17930
977.79327,0.17202
975.86468,0.16429
973.93609,0.15638
972.00751,0.14883
970.07892,0.14137
968.15033,0.13440
966.22175,0.12799
964.29316,0.12183
962.36458,0.11613
960.43599,0.11130
958.50740,0.10716
956.57882,0.10317
954.65023,0.09939
952.72164,0.09601
950.79306,0.09317
948.86447,0.09086
946.93589,0.08883
945.00730,0.08706
943.07871,0.08557
941.15013,0.08427
939.22154,0.08306
937.29295,0.08187
935.36437,0.08071
933.43578,0.07967
931.50719,0.07853
929.57861,0.07738
927.65002,0.07660
925.72144,0.07593
923.79285,0.07534
921.86426,0.07501
919.93568,0.07470
918.00709,0.07448
916.07850,0.07433
914.14992,0.07367
912.22133,0.07219
910.29274,0.07024
908.36416,0.06755
906.43557,0.06363
904.50699,0.05911
902.57840,0.05443
900.64981,0.04986
898.72123,0.04585
896.79264,0.04204
894.86405,0.03817
892.93547,0.03494
891.00688,0.03225
889.07830,0.02943
887.14971,0.02667
885.22112,0.02407
883.29254,0.02199
881.36395,0.02052
879.43536,0.01865
877.50678,0.01637
875.57819,0.01415
873.64960,0.01193
871.72102,0.00987
869.79243,0.00790
867.86385,0.00593
865.93526,0.00426
864.00667,0.00292
862.07809,0.00175
860.14950,0.00101
858.22091,0.00050
856.29233,0.00000
854.36374,-0.00037
852.43516,-0.00061
850.50657,-0.00052
848.57798,0.00030
846.64940,0.00181
844.72081,0.00342
842.79222,0.00489
840.86364,0.00700
838.93505,0.00956
837.00646,0.01206
835.07788,0.01470
833.14929,0.01744
831.22071,0.01938
829.29212,0.02026
827.36353,0.02121
825.43495,0.02212
823.50636,0.02278
821.57777,0.02348
819.64919,0.02425
817.72060,0.02512
815.79201,0.02585
813.86343,0.02731
811.93484,0.02983
810.00626,0.03274
808.07767,0.03636
806.14908,0.04122
804.22050,0.04653
802.29191,0.05025
800.36332,0.05202
798.43474,0.05185
796.50615,0.04914
794.57757,0.04526
792.64898,0.04187
790.72039,0.03885
788.79181,0.03644
786.86322,0.03545
784.93463,0.03536
783.00605,0.03597
781.07746,0.03679
779.14887,0.03590
777.22029,0.03297
775.29170,0.02911
773.36312,0.02527
771.43453,0.02173
769.50594,0.01878
767.57736,0.01688
765.64877,0.01578
763.72018,0.01515
761.79160,0.01489
759.86301,0.01507
757.93443,0.01513
756.00584,0.01494
754.07725,0.01477
752.14867,0.01415
750.22008,0.01335
748.29149,0.01272
746.36291,0.01174
744.43432,0.00991
742.50573,0.00789
740.57715,0.00615
738.64856,0.00405
736.71998,0.00225
734.79139,0.00110
732.86280,0.00035
730.93422,0.00026
729.00563,0.00028
727.07704,0.00029
725.14846,0.00065
723.21987,0.00130
721.29129,0.00162
719.36270,0.00098
717.43411,0.00005
715.50553,-0.00092
713.57694,-0.00170
711.64835,-0.00140
709.71977,-0.00083
707.79118,0.00003
705.86259,0.00174
703.93401,0.00353
702.00542,0.00604
700.07684,0.00937
698.14825,0.01293
696.21966,0.01602
694.29108,0.01584
692.36249,0.01300
690.43390,0.01000
688.50532,0.00766
686.57673,0.00642
684.64814,0.00499
682.71956,0.00388
680.79097,0.00385
678.86239,0.00339
676.93380,0.00235
675.00521,0.00141
673.07663,0.00118
671.14804,0.00135
669.21945,0.00066
667.29087,-0.00062
665.36228,-0.00094
663.43370,-0.00028
661.50511,0.00024
659.57652,0.00000
657.64794,0.00025
655.71935,0.00125
653.79076,0.00159
651.86218,0.00240
649.93359,0.00308
648.00500,0.00280
646.07642,0.00340
644.14783,0.00389
642.21925,0.00364
640.29066,0.00341
638.36207,0.00343
636.43349,0.00367
634.50490,0.00410
632.57631,0.00544
630.64773,0.00630
628.71914,0.00642
626.79056,0.00689
624.86197,0.00715
622.93338,0.00757
621.00480,0.00863
619.07621,0.00994
617.14762,0.01036
615.21904,0.00977
613.29045,0.00971
611.36186,0.01054
609.43328,0.01180
607.50469,0.01339
605.57611,0.01439
603.64752,0.01447
601.71893,0.01502
599.79035,0.01640
597.86176,0.01882
595.93317,0.02239
594.00459,0.02571
592.07600,0.02685
590.14742,0.02651
588.21883,0.02885
586.29024,0.03332
584.36166,0.03740
582.43307,0.04057
580.50448,0.04193
578.57590,0.04415
576.64731,0.04766
574.71872,0.05120
572.79014,0.05602
570.86155,0.06062
568.93297,0.06433
567.00438,0.06791
565.07579,0.07101
563.14721,0.07396
561.21862,0.07754
559.29003,0.08125
557.36145,0.08404
555.43286,0.08709
553.50427,0.09150
551.57569,0.09461
549.64710,0.09578
547.71852,0.09905
545.78993,0.10426
543.86134,0.10888
541.93276,0.11284
540.00417,0.11622
538.07558,0.12014
536.14700,0.12413
534.21841,0.12698
532.28983,0.13008
530.36124,0.13286
528.43265,0.13251
526.50407,0.13004
524.57548,0.12801
522.64689,0.12527
520.71831,0.12233
518.78972,0.12090
516.86113,0.11861
514.93255,0.11431
513.00396,0.11007
511.07538,0.10691
509.14679,0.10303
507.21820,0.09996
505.28962,0.09990
503.36103,0.10014
501.43244,0.10198
499.50386,0.10519
497.57527,0.10850
495.64669,0.11436
493.71810,0.12003
491.78951,0.12576
489.86093,0.13444
487.93234,0.14555
486.00375,0.15707
484.07517,0.16741
482.14658,0.17760
480.21799,0.18586
478.28941,0.19241
476.36082,0.19758
474.43224,0.20230
472.50365,0.20466
470.57506,0.19993
468.64648,0.19310
466.71789,0.18595
464.78930,0.17955
462.86072,0.17128
460.93213,0.16007
459.00355,0.14889
457.07496,0.13736
455.14637,0.12809
453.21779,0.11963
451.28920,0.11209
449.36061,0.10503
447.43203,0.09998
445.50344,0.09561
443.57485,0.09010
441.64627,0.08826
439.71768,0.08479
437.78910,0.08161
435.86051,0.07957
433.93192,0.07438
432.00334,0.06981
430.07475,0.06792
428.14616,0.06921
426.21758,0.06674
424.28899,0.06110
422.36040,0.05347
420.43182,0.04617
418.50323,0.04229
416.57465,0.03871
414.64606,0.04105
412.71747,0.03418
410.78889,0.01770
408.86030,0.00885
406.93171,0.00357
405.00313,0.00566
403.07454,0.01239
401.14596,0.01235
399.21737,0.00000
