3747.24323,0.00000
3745.31464,0.00150
3743.38605,0.00046
3741.45747,0.00075
3739.52888,0.00258
3737.60030,0.00330
3735.67171,0.00340
3733.74312,0.00349
3731.81454,0.00388
3729.88595,0.00441
3727.95736,0.00559
3726.02878,0.00656
3724.10019,0.00735
3722.17161,0.00887
3720.24302,0.01024
3718.31443,0.01213
3716.38585,0.01427
3714.45726,0.01719
3712.52867,0.02021
3710.60009,0.02231
3708.67150,0.02545
3706.74291,0.02876
3704.81433,0.03244
3702.88574,0.03620
3700.95716,0.03887
3699.02857,0.04118
3697.09998,0.04253
3695.17140,0.04328
3693.24281,0.04369
3691.31422,0.04465
3689.38564,0.04540
3687.45705,0.04548
3685.52846,0.04743
3683.59988,0.05043
3681.67129,0.05363
3679.74271,0.05705
3677.81412,0.06126
3675.88553,0.06491
3673.95695,0.06797
3672.02836,0.07326
3670.09977,0.07787
3668.17119,0.08146
3666.24260,0.08621
3664.31402,0.09096
3662.38543,0.09571
3660.45684,0.10016
3658.52826,0.10460
3656.59967,0.10846
3654.67108,0.11163
3652.74250,0.11577
3650.81391,0.11952
3648.88532,0.12187
3646.95674,0.12429
3645.02815,0.12769
3643.09957,0.13113
3641.17098,0.13419
3639.24239,0.13713
3637.31381,0.13991
3635.38522,0.14297
3633.45663,0.14590
3631.52805,0.14932
3629.59946,0.15212
3627.67088,0.15290
3625.74229,0.15439
3623.81370,0.15615
3621.88512,0.15728
3619.95653,0.15743
3618.02794,0.15563
3616.09936,0.15401
3614.17077,0.15285
3612.24218,0.15142
3610.31360,0.15022
3608.38501,0.14891
3606.45643,0.14770
3604.52784,0.14709
3602.59925,0.14655
3600.67067,0.14579
3598.74208,0.14513
3596.81349,0.14459
3594.88491,0.14413
3592.95632,0.14357
3591.02774,0.14339
3589.09915,0.14348
3587.17056,0.14297
3585.24198,0.14282
3583.31339,0.14346
3581.38480,0.14394
3579.45622,0.14431
3577.52763,0.14486
3575.59904,0.14555
3573.67046,0.14628
3571.74187,0.14710
3569.81329,0.14816
3567.88470,0.14904
3565.95611,0.14958
3564.02753,0.15047
3562.09894,0.15168
3560.17035,0.15272
3558.24177,0.15366
3556.31318,0.15473
3554.38459,0.15594
3552.45601,0.15692
3550.52742,0.15777
3548.59884,0.15884
3546.67025,0.15976
3544.74166,0.16065
3542.81308,0.16173
3540.88449,0.16287
3538.95590,0.16410
3537.02732,0.16523
3535.09873,0.16615
3533.17015,0.16716
3531.24156,0.16836
3529.31297,0.16943
3527.38439,0.17042
3525.45580,0.17147
3523.52721,0.17231
3521.59863,0.17309
3519.67004,0.17420
3517.74145,0.17531
3515.81287,0.17619
3513.88428,0.17715
3511.95570,0.17819
3510.02711,0.17930
3508.09852,0.18049
3506.16994,0.18153
3504.24135,0.18252
3502.31276,0.18333
3500.38418,0.18418
3498.45559,0.18530
3496.52701,0.18621
3494.59842,0.18709
3492.66983,0.18805
3490.74125,0.18890
3488.81266,0.18996
3486.88407,0.19101
3484.95549,0.19181
3483.02690,0.19267
3481.09831,0.19364
3479.16973,0.19457
3477.24114,0.19530
3475.31256,0.19592
3473.38397,0.19686
3471.45538,0.19798
3469.52680,0.19882
3467.59821,0.19941
3465.66962,0.19994
3463.74104,0.20059
3461.81245,0.20141
3459.88386,0.20239
3457.95528,0.20351
3456.02669,0.20439
3454.09811,0.20500
3452.16952,0.20555
3450.24093,0.20625
3448.31235,0.20704
3446.38376,0.20772
3444.45517,0.20841
3442.52659,0.20922
3440.59800,0.20998
3438.66942,0.21057
3436.74083,0.21103
3434.81224,0.21152
3432.88366,0.21218
3430.95507,0.21283
3429.02648,0.21349
3427.09790,0.21420
3425.16931,0.21468
3423.24072,0.21512
3421.31214,0.21564
3419.38355,0.21616
3417.45497,0.21674
3415.52638,0.21712
3413.59779,0.21750
3411.66921,0.21799
3409.74062,0.21832
3407.81203,0.21864
3405.88345,0.21900
3403.95486,0.21948
3402.02628,0.22001
3400.09769,0.22037
3398.16910,0.22071
3396.24052,0.22100
3394.31193,0.22120
3392.38334,0.22145
3390.45476,0.22169
3388.52617,0.22196
3386.59758,0.22223
3384.66900,0.22249
3382.74041,0.22265
3380.81183,0.22282
3378.88324,0.22315
3376.95465,0.22352
3375.02607,0.22376
3373.09748,0.22375
3371.16889,0.22380
3369.24031,0.22400
3367.31172,0.22411
3365.38314,0.22434
3363.45455,0.22475
3361.52596,0.22497
3359.59738,0.22506
3357.66879,0.22525
3355.74020,0.22538
3353.81162,0.22551
3351.88303,0.22575
3349.95444,0.22576
3348.02586,0.22576
3346.09727,0.22582
3344.16869,0.22576
3342.24010,0.22590
3340.31151,0.22609
3338.38293,0.22606
3336.45434,0.22598
3334.52575,0.22595
3332.59717,0.22588
3330.66858,0.22590
3328.73999,0.22599
3326.81141,0.22575
3324.88282,0.22537
3322.95424,0.22533
3321.02565,0.22543
3319.09706,0.22542
3317.16848,0.22551
3315.23989,0.22544
3313.31130,0.22526
3311.38272,0.22510
3309.45413,0.22484
3307.52555,0.22475
3305.59696,0.22471
3303.66837,0.22459
3301.73979,0.22446
3299.81120,0.22421
3297.88261,0.22388
3295.95403,0.22352
3294.02544,0.22336
3292.09685,0.22318
3290.16827,0.22269
3288.23968,0.22227
3286.31110,0.22203
3284.38251,0.22164
3282.45392,0.22107
3280.52534,0.22062
3278.59675,0.22015
3276.66816,0.21949
3274.73958,0.21897
3272.81099,0.21840
3270.88241,0.21754
3268.95382,0.21670
3267.02523,0.21601
3265.09665,0.21528
3263.16806,0.21454
3261.23947,0.21381
3259.31089,0.21291
3257.38230,0.21201
3255.45371,0.21124
3253.52513,0.21044
3251.59654,0.20959
3249.66796,0.20871
3247.73937,0.20793
3245.81078,0.20716
3243.88220,0.20622
3241.95361,0.20537
3240.02502,0.20468
3238.09644,0.20393
3236.16785,0.20312
3234.23927,0.20224
3232.31068,0.20139
3230.38209,0.20066
3228.45351,0.20002
3226.52492,0.19944
3224.59633,0.19868
3222.66775,0.19787
3220.73916,0.19722
3218.81057,0.19657
3216.88199,0.19585
3214.95340,0.19513
3213.02482,0.19451
3211.09623,0.19370
3209.16764,0.19287
3207.23906,0.19234
3205.31047,0.19172
3203.38188,0.19089
3201.45330,0.19006
3199.52471,0.18927
3197.59612,0.18852
3195.66754,0.18786
3193.73895,0.18717
3191.81037,0.18628
3189.88178,0.18544
3187.95319,0.18460
3186.02461,0.18376
3184.09602,0.18300
3182.16743,0.18212
3180.23885,0.18119
3178.31026,0.18023
3176.38168,0.17935
3174.45309,0.17859
3172.52450,0.17790
3170.59592,0.17728
3168.66733,0.17647
3166.73874,0.17546
3164.81016,0.17449
3162.88157,0.17376
3160.95298,0.17305
3159.02440,0.17223
3157.09581,0.17158
3155.16723,0.17087
3153.23864,0.16996
3151.31005,0.16917
3149.38147,0.16850
3147.45288,0.16777
3145.52429,0.16697
3143.59571,0.16615
3141.66712,0.16545
3139.73854,0.16490
3137.80995,0.16430
3135.88136,0.16371
3133.95278,0.16315
3132.02419,0.16245
3130.09560,0.16178
3128.16702,0.16121
3126.23843,0.16078
3124.30984,0.16040
3122.38126,0.15988
3120.45267,0.15924
3118.52409,0.15860
3116.59550,0.15809
3114.66691,0.15773
3112.73833,0.15730
3110.80974,0.15679
3108.88115,0.15635
3106.95257,0.15579
3105.02398,0.15517
3103.09540,0.15478
3101.16681,0.15439
3099.23822,0.15381
3097.30964,0.15326
3095.38105,0.15282
3093.45246,0.15236
3091.52388,0.15188
3089.59529,0.15148
3087.66670,0.15111
3085.73812,0.15071
3083.80953,0.15015
3081.88095,0.14962
3079.95236,0.14920
3078.02377,0.14864
3076.09519,0.14809
3074.16660,0.14759
3072.23801,0.14707
3070.30943,0.14657
3068.38084,0.14596
3066.45225,0.14530
3064.52367,0.14476
3062.59508,0.14419
3060.66650,0.14353
3058.73791,0.14293
3056.80932,0.14224
3054.88074,0.14151
3052.95215,0.14082
3051.02356,0.14015
3049.09498,0.13964
3047.16639,0.13914
3045.23781,0.13848
3043.30922,0.13783
3041.38063,0.13733
3039.45205,0.13680
3037.52346,0.13612
3035.59487,0.13542
3033.66629,0.13490
3031.73770,0.13457
3029.80911,0.13427
3027.88053,0.13400
3025.95194,0.13365
3024.02336,0.13325
3022.09477,0.13297
3020.16618,0.13264
3018.23760,0.13228
3016.30901,0.13213
3014.38042,0.13224
3012.45184,0.13241
3010.52325,0.13252
3008.59467,0.13271
3006.66608,0.13295
3004.73749,0.13309
3002.80891,0.13336
3000.88032,0.13387
2998.95173,0.13450
2997.02315,0.13523
2995.09456,0.13601
2993.16597,0.13681
2991.23739,0.13774
2989.30880,0.13886
2987.38022,0.14020
2985.45163,0.14173
2983.52304,0.14334
2981.59446,0.14512
2979.66587,0.14716
2977.73728,0.14917
2975.80870,0.15114
2973.88011,0.15332
2971.95153,0.15568
2970.02294,0.15829
2968.09435,0.16103
2966.16577,0.16376
2964.23718,0.16654
2962.30859,0.16916
2960.38001,0.17159
2958.45142,0.17385
2956.52283,0.17588
2954.59425,0.17769
2952.66566,0.17946
2950.73708,0.18144
2948.80849,0.18369
2946.87990,0.18654
2944.95132,0.19018
2943.02273,0.19439
2941.09414,0.19917
2939.16556,0.20445
2937.23697,0.20991
2935.30838,0.21539
2933.37980,0.22077
2931.45121,0.22593
2929.52263,0.23074
2927.59404,0.23491
2925.66545,0.23821
2923.73687,0.24034
2921.80828,0.24083
2919.87969,0.23928
2917.95111,0.23493
2916.02252,0.22696
2914.09394,0.21646
2912.16535,0.20622
2910.23676,0.19786
2908.30818,0.19128
2906.37959,0.18610
2904.45100,0.18185
2902.52242,0.17813
2900.59383,0.17477
2898.66524,0.17162
2896.73666,0.16862
2894.80807,0.16571
2892.87949,0.16281
2890.95090,0.16003
2889.02231,0.15755
2887.09373,0.15532
2885.16514,0.15327
2883.23655,0.15150
2881.30797,0.15009
2879.37938,0.14909
2877.45080,0.14855
2875.52221,0.14851
2873.59362,0.14887
2871.66504,0.14929
2869.73645,0.14966
2867.80786,0.15028
2865.87928,0.15174
2863.95069,0.15424
2862.02210,0.15801
2860.09352,0.16324
2858.16493,0.16959
2856.23635,0.17613
2854.30776,0.18141
2852.37917,0.18397
2850.45059,0.18177
2848.52200,0.17345
2846.59341,0.16128
2844.66483,0.14895
2842.73624,0.13840
2840.80766,0.12975
2838.87907,0.12279
2836.95048,0.11738
2835.02190,0.11302
2833.09331,0.10942
2831.16472,0.10632
2829.23614,0.10360
2827.30755,0.10128
2825.37896,0.09918
2823.45038,0.09734
2821.52179,0.09580
2819.59321,0.09432
2817.66462,0.09295
2815.73603,0.09170
2813.80745,0.09035
2811.87886,0.08914
2809.95027,0.08817
2808.02169,0.08723
2806.09310,0.08629
2804.16451,0.08531
2802.23593,0.08440
2800.30734,0.08355
2798.37876,0.08273
2796.45017,0.08200
2794.52158,0.08126
2792.59300,0.08053
2790.66441,0.07982
2788.73582,0.07916
2786.80724,0.07849
2784.87865,0.07774
2782.95007,0.07705
2781.02148,0.07642
2779.09289,0.07586
2777.16431,0.07534
2775.23572,0.07485
2773.30713,0.07435
2771.37855,0.07381
2769.44996,0.07332
2767.52137,0.07277
2765.59279,0.07231
2763.66420,0.07201
2761.73562,0.07167
2759.80703,0.07141
2757.87844,0.07102
2755.94986,0.07044
2754.02127,0.07002
2752.09268,0.06971
2750.16410,0.06942
2748.23551,0.06913
2746.30693,0.06881
2744.37834,0.06841
2742.44975,0.06796
2740.52117,0.06765
2738.59258,0.06736
2736.66399,0.06697
2734.73541,0.06669
2732.80682,0.06650
2730.87823,0.06614
2728.94965,0.06560
2727.02106,0.06509
2725.09248,0.06471
2723.16389,0.06430
2721.23530,0.06392
2719.30672,0.06347
2717.37813,0.06295
2715.44954,0.06247
2713.52096,0.06202
2711.59237,0.06178
2709.66379,0.06155
2707.73520,0.06117
2705.80661,0.06077
2703.87803,0.06027
2701.94944,0.05981
2700.02085,0.05950
2698.09227,0.05918
2696.16368,0.05885
2694.23509,0.05853
2692.30651,0.05824
2690.37792,0.05799
2688.44934,0.05774
2686.52075,0.05750
2684.59216,0.05718
2682.66358,0.05678
2680.73499,0.05652
2678.80640,0.05624
2676.87782,0.05580
2674.94923,0.05542
2673.02064,0.05519
2671.09206,0.05492
2669.16347,0.05447
2667.23489,0.05407
2665.30630,0.05382
2663.37771,0.05350
2661.44913,0.05317
2659.52054,0.05286
2657.59195,0.05254
2655.66337,0.05231
2653.73478,0.05206
2651.80620,0.05167
2649.87761,0.05131
2647.94902,0.05103
2646.02044,0.05071
2644.09185,0.05047
2642.16326,0.05029
2640.23468,0.05002
2638.30609,0.04970
2636.37750,0.04930
2634.44892,0.04898
2632.52033,0.04879
2630.59175,0.04849
2628.66316,0.04812
2626.73457,0.04778
2624.80599,0.04748
2622.87740,0.04712
2620.94881,0.04679
2619.02023,0.04655
2617.09164,0.04626
2615.16306,0.04596
2613.23447,0.04567
2611.30588,0.04533
2609.37730,0.04505
2607.44871,0.04479
2605.52012,0.04444
2603.59154,0.04410
2601.66295,0.04379
2599.73436,0.04346
2597.80578,0.04314
2595.87719,0.04286
2593.94861,0.04253
2592.02002,0.04214
2590.09143,0.04184
2588.16285,0.04166
2586.23426,0.04133
2584.30567,0.04088
2582.37709,0.04050
2580.44850,0.04026
2578.51991,0.04010
2576.59133,0.03989
2574.66274,0.03956
2572.73416,0.03915
2570.80557,0.03875
2568.87698,0.03850
2566.94840,0.03833
2565.01981,0.03807
2563.09122,0.03779
2561.16264,0.03759
2559.23405,0.03731
2557.30547,0.03694
2555.37688,0.03661
2553.44829,0.03642
2551.51971,0.03632
2549.59112,0.03614
2547.66253,0.03583
2545.73395,0.03552
2543.80536,0.03522
2541.87677,0.03498
2539.94819,0.03485
2538.01960,0.03472
2536.09102,0.03447
2534.16243,0.03422
2532.23384,0.03395
2530.30526,0.03370
2528.37667,0.03354
2526.44808,0.03333
2524.51950,0.03304
2522.59091,0.03276
2520.66233,0.03252
2518.73374,0.03222
2516.80515,0.03191
2514.87657,0.03164
2512.94798,0.03138
2511.01939,0.03117
2509.09081,0.03099
2507.16222,0.03070
2505.23363,0.03034
2503.30505,0.03004
2501.37646,0.02980
2499.44788,0.02960
2497.51929,0.02934
2495.59070,0.02902
2493.66212,0.02880
2491.73353,0.02858
2489.80494,0.02829
2487.87636,0.02798
2485.94777,0.02759
2484.01919,0.02722
2482.09060,0.02691
2480.16201,0.02667
2478.23343,0.02648
2476.30484,0.02620
2474.37625,0.02592
2472.44767,0.02572
2470.51908,0.02545
2468.59049,0.02513
2466.66191,0.02477
2464.73332,0.02437
2462.80474,0.02400
2460.87615,0.02367
2458.94756,0.02338
2457.01898,0.02315
2455.09039,0.02291
2453.16180,0.02261
2451.23322,0.02236
2449.30463,0.02212
2447.37604,0.02179
2445.44746,0.02152
2443.51887,0.02125
2441.59029,0.02093
2439.66170,0.02058
2437.73311,0.02022
2435.80453,0.01996
2433.87594,0.01974
2431.94735,0.01950
2430.01877,0.01923
2428.09018,0.01894
2426.16160,0.01861
2424.23301,0.01828
2422.30442,0.01802
2420.37584,0.01777
2418.44725,0.01750
2416.51866,0.01732
2414.59008,0.01713
2412.66149,0.01685
2410.73290,0.01656
2408.80432,0.01621
2406.87573,0.01593
2404.94715,0.01573
2403.01856,0.01543
2401.08997,0.01519
2399.16139,0.01495
2397.23280,0.01467
2395.30421,0.01438
2393.37563,0.01408
2391.44704,0.01385
2389.51846,0.01369
2387.58987,0.01349
2385.66128,0.01322
2383.73270,0.01296
2381.80411,0.01278
2379.87552,0.01257
2377.94694,0.01222
2376.01835,0.01187
2374.08976,0.01170
2372.16118,0.01152
2370.23259,0.01124
2368.30401,0.01087
2366.37542,0.01045
2364.44683,0.01011
2362.51825,0.00979
2360.58966,0.00951
2358.66107,0.00928
2356.73249,0.00913
2354.80390,0.00911
2352.87532,0.00904
2350.94673,0.00895
2349.01814,0.00913
2347.08956,0.00931
2345.16097,0.00902
2343.23238,0.00869
2341.30380,0.00861
2339.37521,0.00851
2337.44662,0.00830
2335.51804,0.00794
2333.58945,0.00769
2331.66087,0.00749
2329.73228,0.00728
2327.80369,0.00724
2325.87511,0.00722
2323.94652,0.00711
2322.01793,0.00700
2320.08935,0.00689
2318.16076,0.00679
2316.23217,0.00674
2314.30359,0.00661
2312.37500,0.00638
2310.44642,0.00630
2308.51783,0.00625
2306.58924,0.00614
2304.66066,0.00610
2302.73207,0.00604
2300.80348,0.00588
2298.87490,0.00572
2296.94631,0.00565
2295.01773,0.00558
2293.08914,0.00548
2291.16055,0.00534
2289.23197,0.00515
2287.30338,0.00506
2285.37479,0.00494
2283.44621,0.00476
2281.51762,0.00467
2279.58903,0.00459
2277.66045,0.00447
2275.73186,0.00433
2273.80328,0.00424
2271.87469,0.00418
2269.94610,0.00404
2268.01752,0.00391
2266.08893,0.00383
2264.16034,0.00373
2262.23176,0.00365
2260.30317,0.00356
2258.37459,0.00341
2256.44600,0.00324
2254.51741,0.00314
2252.58883,0.00315
2250.66024,0.00312
2248.73165,0.00303
2246.80307,0.00290
2244.87448,0.00278
2242.94589,0.00269
2241.01731,0.00262
2239.08872,0.00255
2237.16014,0.00248
2235.23155,0.00241
2233.30296,0.00229
2231.37438,0.00213
2229.44579,0.00202
2227.51720,0.00190
2225.58862,0.00175
2223.66003,0.00172
2221.73145,0.00176
2219.80286,0.00170
2217.87427,0.00156
2215.94569,0.00142
2214.01710,0.00132
2212.08851,0.00124
2210.15993,0.00115
2208.23134,0.00107
2206.30275,0.00097
2204.37417,0.00088
2202.44558,0.00081
2200.51700,0.00074
2198.58841,0.00071
2196.65982,0.00067
2194.73124,0.00063
2192.80265,0.00061
2190.87406,0.00059
2188.94548,0.00054
2187.01689,0.00049
2185.08830,0.00044
2183.15972,0.00037
2181.23113,0.00035
2179.30255,0.00038
2177.37396,0.00043
2175.44537,0.00047
2173.51679,0.00041
2171.58820,0.00021
2169.65961,0.00000
2167.73103,0.00005
2165.80244,0.00025
2163.87386,0.00032
2161.94527,0.00032
2160.01668,0.00032
2158.08810,0.00032
2156.15951,0.00032
2154.23092,0.00027
2152.30234,0.00024
2150.37375,0.00023
2148.44516,0.00021
2146.51658,0.00025
2144.58799,0.00028
2142.65941,0.00022
2140.73082,0.00022
2138.80223,0.00026
2136.87365,0.00022
2134.94506,0.00023
2133.01647,0.00017
2131.08789,0.00005
2129.15930,0.00006
2127.23072,0.00005
2125.30213,0.00002
2123.37354,-0.00006
2121.44496,-0.00014
2119.51637,-0.00016
2117.58778,-0.00017
2115.65920,-0.00022
2113.73061,-0.00022
2111.80202,-0.00018
2109.87344,-0.00015
2107.94485,-0.00007
2106.01627,-0.00005
2104.08768,-0.00014
2102.15909,-0.00021
2100.23051,-0.00018
2098.30192,-0.00009
2096.37333,-0.00010
2094.44475,-0.00012
2092.51616,-0.00001
2090.58758,0.00008
2088.65899,0.00007
2086.73040,-0.00001
2084.80182,-0.00006
2082.87323,-0.00006
2080.94464,0.00000
2079.01606,0.00009
2077.08747,0.00007
2075.15888,0.00002
2073.23030,0.00002
2071.30171,0.00008
2069.37313,0.00007
2067.44454,-0.00002
2065.51595,-0.00005
2063.58737,-0.00004
2061.65878,-0.00000
2059.73019,0.00001
2057.80161,-0.00001
2055.87302,0.00002
2053.94443,0.00006
2052.01585,0.00010
2050.08726,0.00018
2048.15868,0.00028
2046.23009,0.00040
2044.30150,0.00053
2042.37292,0.00073
2040.44433,0.00093
2038.51574,0.00104
2036.58716,0.00122
2034.65857,0.00156
2032.72999,0.00182
2030.80140,0.00190
2028.87281,0.00193
2026.94423,0.00200
2025.01564,0.00206
2023.08705,0.00213
2021.15847,0.00217
2019.22988,0.00214
2017.30129,0.00215
2015.37271,0.00231
2013.44412,0.00255
2011.51554,0.00270
2009.58695,0.00280
2007.65836,0.00304
2005.72978,0.00322
2003.80119,0.00326
2001.87260,0.00331
1999.94402,0.00341
1998.01543,0.00344
1996.08685,0.00339
1994.15826,0.00334
1992.22967,0.00324
1990.30109,0.00314
1988.37250,0.00302
1986.44391,0.00282
1984.51533,0.00273
1982.58674,0.00270
1980.65815,0.00263
1978.72957,0.00258
1976.80098,0.00251
1974.87240,0.00239
1972.94381,0.00225
1971.01522,0.00206
1969.08664,0.00187
1967.15805,0.00171
1965.22946,0.00151
1963.30088,0.00132
1961.37229,0.00109
1959.44371,0.00089
1957.51512,0.00077
1955.58653,0.00069
1953.65795,0.00066
1951.72936,0.00057
1949.80077,0.00055
1947.87219,0.00051
1945.94360,0.00036
1944.01501,0.00030
1942.08643,0.00026
1940.15784,0.00020
1938.22926,0.00014
1936.30067,0.00004
1934.37208,0.00000
1932.44350,-0.00006
1930.51491,-0.00018
1928.58632,-0.00017
1926.65774,-0.00007
1924.72915,0.00000
1922.80056,-0.00012
1920.87198,-0.00009
1918.94339,0.00020
1917.01481,0.00034
1915.08622,0.00051
1913.15763,0.00086
1911.22905,0.00125
1909.30046,0.00176
1907.37187,0.00221
1905.44329,0.00272
1903.51470,0.00326
1901.58612,0.00377
1899.65753,0.00432
1897.72894,0.00482
1895.80036,0.00537
1893.87177,0.00586
1891.94318,0.00634
1890.01460,0.00667
1888.08601,0.00681
1886.15742,0.00715
1884.22884,0.00739
1882.30025,0.00763
1880.37167,0.00791
1878.44308,0.00801
1876.51449,0.00804
1874.58591,0.00813
1872.65732,0.00835
1870.72873,0.00844
1868.80015,0.00817
1866.87156,0.00771
1864.94298,0.00738
1863.01439,0.00704
1861.08580,0.00640
1859.15722,0.00565
1857.22863,0.00487
1855.30004,0.00411
1853.37146,0.00331
1851.44287,0.00257
1849.51428,0.00191
1847.58570,0.00139
1845.65711,0.00111
1843.72853,0.00048
1841.79994,0.00000
1839.87135,-0.00017
1837.94277,-0.00040
1836.01418,-0.00051
1834.08559,-0.00058
1832.15701,-0.00041
1830.22842,-0.00032
1828.29984,-0.00027
1826.37125,0.00015
1824.44266,0.00034
1822.51408,0.00060
1820.58549,0.00110
1818.65690,0.00166
1816.72832,0.00233
1814.79973,0.00309
1812.87114,0.00407
1810.94256,0.00495
1809.01397,0.00583
1807.08539,0.00697
1805.15680,0.00831
1803.22821,0.00976
1801.29963,0.01132
1799.37104,0.01295
1797.44245,0.01470
1795.51387,0.01668
1793.58528,0.01865
1791.65669,0.02041
1789.72811,0.02235
1787.79952,0.02470
1785.87094,0.02709
1783.94235,0.02936
1782.01376,0.03164
1780.08518,0.03391
1778.15659,0.03613
1776.22800,0.03840
1774.29942,0.04080
1772.37083,0.04266
1770.44225,0.04437
1768.51366,0.04656
1766.58507,0.04850
1764.65649,0.05070
1762.72790,0.05309
1760.79931,0.05504
1758.87073,0.05736
1756.94214,0.05996
1755.01355,0.06284
1753.08497,0.06618
1751.15638,0.06954
1749.22780,0.07302
1747.29921,0.07703
1745.37062,0.08150
1743.44204,0.08623
1741.51345,0.09092
1739.58486,0.09524
1737.65628,0.09954
1735.72769,0.10396
1733.79911,0.10710
1731.87052,0.10955
1729.94193,0.11272
1728.01335,0.11560
1726.08476,0.11839
1724.15617,0.12117
1722.22759,0.12395
1720.29900,0.12731
1718.37041,0.13029
1716.44183,0.13250
1714.51324,0.13469
1712.58466,0.13713
1710.65607,0.13947
1708.72748,0.14152
1706.79890,0.14352
1704.87031,0.14514
1702.94172,0.14743
1701.01314,0.14985
1699.08455,0.15153
1697.15596,0.15426
1695.22738,0.15660
1693.29879,0.15879
1691.37021,0.16194
1689.44162,0.16445
1687.51303,0.16741
1685.58445,0.17046
1683.65586,0.17249
1681.72727,0.17524
1679.79869,0.17829
1677.87010,0.18136
1675.94152,0.18419
1674.01293,0.18653
1672.08434,0.18919
1670.15576,0.19152
1668.22717,0.19331
1666.29858,0.19522
1664.37000,0.19718
1662.44141,0.19840
1660.51282,0.19927
1658.58424,0.20016
1656.65565,0.20108
1654.72707,0.20211
1652.79848,0.20096
1650.86989,0.19967
1648.94131,0.20033
1647.01272,0.20028
1645.08413,0.19946
1643.15555,0.19909
1641.22696,0.19906
1639.29838,0.19913
1637.36979,0.19948
1635.44120,0.19913
1633.51262,0.19832
1631.58403,0.19828
1629.65544,0.19762
1627.72686,0.19637
1625.79827,0.19491
1623.86968,0.19307
1621.94110,0.19080
1620.01251,0.18895
1618.08393,0.18761
1616.15534,0.18516
1614.22675,0.18315
1612.29817,0.18172
1610.36958,0.17998
1608.44099,0.17830
1606.51241,0.17665
1604.58382,0.17537
1602.65524,0.17403
1600.72665,0.17254
1598.79806,0.17098
1596.86948,0.16949
1594.94089,0.16786
1593.01230,0.16596
1591.08372,0.16420
1589.15513,0.16215
1587.22654,0.16014
1585.29796,0.15809
1583.36937,0.15599
1581.44079,0.15379
1579.51220,0.15199
1577.58361,0.15063
1575.65503,0.14821
1573.72644,0.14645
1571.79785,0.14591
1569.86927,0.14489
1567.94068,0.14382
1566.01209,0.14336
1564.08351,0.14308
1562.15492,0.14346
1560.22634,0.14400
1558.29775,0.14287
1556.36916,0.14242
1554.44058,0.14289
1552.51199,0.14289
1550.58340,0.14315
1548.65482,0.14293
1546.72623,0.14270
1544.79765,0.14242
1542.86906,0.14194
1540.94047,0.14149
1539.01189,0.13983
1537.08330,0.13883
1535.15471,0.13846
1533.22613,0.13729
1531.29754,0.13611
1529.36895,0.13526
1527.44037,0.13412
1525.51178,0.13270
1523.58320,0.13206
1521.65461,0.13152
1519.72602,0.13102
1517.79744,0.13112
1515.86885,0.13039
1513.94026,0.12875
1512.01168,0.12647
1510.08309,0.12397
1508.15451,0.12161
1506.22592,0.11762
1504.29733,0.11342
1502.36875,0.11044
1500.44016,0.10715
1498.51157,0.10352
1496.58299,0.09972
1494.65440,0.09619
1492.72581,0.09364
1490.79723,0.09116
1488.86864,0.08880
1486.94006,0.08719
1485.01147,0.08618
1483.08288,0.08587
1481.15430,0.08619
1479.22571,0.08734
1477.29712,0.08950
1475.36854,0.09273
1473.43995,0.09739
1471.51137,0.10325
1469.58278,0.10956
1467.65419,0.11497
1465.72561,0.11801
1463.79702,0.11917
1461.86843,0.11991
1459.93985,0.12095
1458.01126,0.12187
1456.08267,0.12183
1454.15409,0.12183
1452.22550,0.12195
1450.29692,0.12157
1448.36833,0.12112
1446.43974,0.12062
1444.51116,0.12028
1442.58257,0.12006
1440.65398,0.12007
1438.72540,0.12042
1436.79681,0.12023
1434.86822,0.11986
1432.93964,0.12016
1431.01105,0.12037
1429.08247,0.12018
1427.15388,0.12029
1425.22529,0.12067
1423.29671,0.12113
1421.36812,0.12185
1419.43953,0.12224
1417.51095,0.12220
1415.58236,0.12242
1413.65378,0.12248
1411.72519,0.12234
1409.79660,0.12229
1407.86802,0.12220
1405.93943,0.12202
1404.01084,0.12163
1402.08226,0.12108
1400.15367,0.12025
1398.22508,0.11909
1396.29650,0.11782
1394.36791,0.11642
1392.43933,0.11525
1390.51074,0.11460
1388.58215,0.11398
1386.65357,0.11289
1384.72498,0.11214
1382.79639,0.11257
1380.86781,0.11340
1378.93922,0.11363
1377.01064,0.11321
1375.08205,0.11236
1373.15346,0.11117
1371.22488,0.10988
1369.29629,0.10857
1367.36770,0.10714
1365.43912,0.10575
1363.51053,0.10424
1361.58194,0.10271
1359.65336,0.10144
1357.72477,0.10040
1355.79619,0.09952
1353.86760,0.09862
1351.93901,0.09783
1350.01043,0.09717
1348.08184,0.09643
1346.15325,0.09578
1344.22467,0.09525
1342.29608,0.09470
1340.36750,0.09413
1338.43891,0.09347
1336.51032,0.09284
1334.58174,0.09232
1332.65315,0.09190
1330.72456,0.09159
1328.79598,0.09128
1326.86739,0.09089
1324.93880,0.09051
1323.01022,0.09015
1321.08163,0.08975
1319.15305,0.08936
1317.22446,0.08911
1315.29587,0.08882
1313.36729,0.08847
1311.43870,0.08818
1309.51011,0.08781
1307.58153,0.08738
1305.65294,0.08710
1303.72435,0.08695
1301.79577,0.08692
1299.86718,0.08708
1297.93860,0.08721
1296.01001,0.08741
1294.08142,0.08782
1292.15284,0.08847
1290.22425,0.08935
1288.29566,0.09043
1286.36708,0.09191
1284.43849,0.09349
1282.50991,0.09499
1280.58132,0.09660
1278.65273,0.09826
1276.72415,0.10006
1274.79556,0.10193
1272.86697,0.10379
1270.93839,0.10575
1269.00980,0.10775
1267.08121,0.10987
1265.15263,0.11213
1263.22404,0.11448
1261.29546,0.11715
1259.36687,0.12043
1257.43828,0.12411
1255.50970,0.12829
1253.58111,0.13314
1251.65252,0.13840
1249.72394,0.14374
1247.79535,0.14885
1245.86677,0.15369
1243.93818,0.15844
1242.00959,0.16304
1240.08101,0.16728
1238.15242,0.17113
1236.22383,0.17480
1234.29525,0.17811
1232.36666,0.18110
1230.43807,0.18396
1228.50949,0.18649
1226.58090,0.18885
1224.65232,0.19128
1222.72373,0.19368
1220.79514,0.19585
1218.86656,0.19794
1216.93797,0.20000
1215.00938,0.20201
1213.08080,0.20415
1211.15221,0.20626
1209.22363,0.20831
1207.29504,0.21039
1205.36645,0.21224
1203.43787,0.21387
1201.50928,0.21558
1199.58069,0.21730
1197.65211,0.21877
1195.72352,0.22014
1193.79493,0.22163
1191.86635,0.22333
1189.93776,0.22511
1188.00918,0.22670
1186.08059,0.22822
1184.15200,0.23004
1182.22342,0.23188
1180.29483,0.23359
1178.36624,0.23576
1176.43766,0.23833
1174.50907,0.24117
1172.58048,0.24411
1170.65190,0.24662
1168.72331,0.24942
1166.79473,0.25253
1164.86614,0.25534
1162.93755,0.25791
1161.00897,0.25990
1159.08038,0.26107
1157.15179,0.26184
1155.22321,0.26283
1153.29462,0.26419
1151.36604,0.26590
1149.43745,0.26780
1147.50886,0.26965
1145.58028,0.27181
1143.65169,0.27451
1141.72310,0.27749
1139.79452,0.28059
1137.86593,0.28424
1135.93734,0.28835
1134.00876,0.29251
1132.08017,0.29671
1130.15159,0.30078
1128.22300,0.30551
1126.29441,0.31110
1124.36583,0.31650
1122.43724,0.32194
1120.50865,0.32764
1118.58007,0.33345
1116.65148,0.33958
1114.72290,0.34629
1112.79431,0.35300
1110.86572,0.35913
1108.93714,0.36496
1107.00855,0.37030
1105.07996,0.37513
1103.15138,0.37921
1101.22279,0.38265
1099.29420,0.38536
1097.36562,0.38669
1095.43703,0.38739
1093.50845,0.38788
1091.57986,0.38797
1089.65127,0.38727
1087.72269,0.38614
1085.79410,0.38527
1083.86551,0.38386
1081.93693,0.38242
1080.00834,0.38151
1078.07976,0.38019
1076.15117,0.37841
1074.22258,0.37681
1072.29400,0.37545
1070.36541,0.37417
1068.43682,0.37320
1066.50824,0.37246
1064.57965,0.37162
1062.65106,0.37034
1060.72248,0.36877
1058.79389,0.36674
1056.86531,0.36441
1054.93672,0.36268
1053.00813,0.36085
1051.07955,0.35930
1049.15096,0.35888
1047.22237,0.35898
1045.29379,0.35964
1043.36520,0.36098
1041.43661,0.36276
1039.50803,0.36440
1037.57944,0.36606
1035.65086,0.36744
1033.72227,0.36771
1031.79368,0.36729
1029.86510,0.36629
1027.93651,0.36440
1026.00792,0.36118
1024.07934,0.35769
1022.15075,0.35473
1020.22217,0.35132
1018.29358,0.34762
1016.36499,0.34411
1014.43641,0.34087
1012.50782,0.33771
1010.57923,0.33411
1008.65065,0.33011
1006.72206,0.32585
1004.79347,0.32127
1002.86489,0.31628
1000.93630,0.31105
999.00772,0.30557
997.07913,0.29976
995.15054,0.29404
993.22196,0.28830
991.29337,0.28185
989.36478,0.27508
987.43620,0.26834
985.50761,0.26104
983.57903,0.25311
981.65044,0.24462
979.72185,0.23564
977.79327,0.22614
975.86468,0.21621
973.93609,0.20614
972.00751,0.19600
970.07892,0.18622
968.15033,0.17712
966.22175,0.16866
964.29316,0.16087
962.36458,0.15370
960.43599,0.14725
958.50740,0.14161
956.57882,0.13664
954.65023,0.13233
952.72164,0.12844
950.79306,0.12477
948.86447,0.12182
946.93589,0.11959
945.00730,0.11766
943.07871,0.11607
941.15013,0.11471
939.22154,0.11331
937.29295,0.11193
935.36437,0.11075
933.43578,0.10962
931.50719,0.10795
929.57861,0.10629
927.65002,0.10545
925.72144,0.10472
923.79285,0.10383
921.86426,0.10344
919.93568,0.10333
918.00709,0.10311
916.07850,0.10280
914.14992,0.10194
912.22133,0.10007
910.29274,0.09713
908.36416,0.09288
906.43557,0.08751
904.50699,0.08173
902.57840,0.07586
900.64981,0.06983
898.72123,0.06423
896.79264,0.05894
894.86405,0.05373
892.93547,0.04941
891.00688,0.04574
889.07830,0.04222
887.14971,0.03872
885.22112,0.03525
883.29254,0.03237
881.36395,0.02969
879.43536,0.02669
877.50678,0.02360
875.57819,0.02060
873.64960,0.01789
871.72102,0.01532
869.79243,0.01268
867.86385,0.00992
865.93526,0.00740
864.00667,0.00536
862.07809,0.00337
860.14950,0.00176
858.22091,0.00092
856.29233,0.00038
854.36374,0.00000
852.43516,-0.00022
850.50657,0.00006
848.57798,0.00106
846.64940,0.00204
844.72081,0.00359
842.79222,0.00653
840.86364,0.00981
838.93505,0.01309
837.00646,0.01637
835.07788,0.02011
833.14929,0.02354
831.22071,0.02579
829.29212,0.02788
827.36353,0.02857
825.43495,0.02875
823.50636,0.02999
821.57777,0.03085
819.64919,0.03182
817.72060,0.03281
815.79201,0.03384
813.86343,0.03613
811.93484,0.03945
810.00626,0.04370
808.07767,0.04953
806.14908,0.05682
804.22050,0.06338
802.29191,0.06810
800.36332,0.07046
798.43474,0.06967
796.50615,0.06628
794.57757,0.06104
792.64898,0.05585
790.72039,0.05192
788.79181,0.04938
786.86322,0.04829
784.93463,0.04845
783.00605,0.04952
781.07746,0.05002
779.14887,0.04854
777.22029,0.04455
775.29170,0.03912
773.36312,0.03377
771.43453,0.02908
769.50594,0.02541
767.57736,0.02282
765.64877,0.02179
763.72018,0.02210
761.79160,0.02260
759.86301,0.02293
757.93443,0.02328
756.00584,0.02359
754.07725,0.02331
752.14867,0.02240
750.22008,0.02141
748.29149,0.02048
746.36291,0.01893
744.43432,0.01666
742.50573,0.01423
740.57715,0.01152
738.64856,0.00894
736.71998,0.00709
734.79139,0.00559
732.86280,0.00476
730.93422,0.00479
729.00563,0.00458
727.07704,0.00425
725.14846,0.00471
723.21987,0.00539
721.29129,0.00491
719.36270,0.00327
717.43411,0.00196
715.50553,0.00113
713.57694,0.00076
711.64835,0.00106
709.71977,0.00175
707.79118,0.00321
705.86259,0.00500
703.93401,0.00686
702.00542,0.00950
700.07684,0.01338
698.14825,0.01825
696.21966,0.02161
694.29108,0.02102
692.36249,0.01756
690.43390,0.01426
688.50532,0.01188
686.57673,0.00945
684.64814,0.00781
682.71956,0.00709
680.79097,0.00611
678.86239,0.00531
676.93380,0.00496
675.00521,0.00467
673.07663,0.00438
671.14804,0.00401
669.21945,0.00320
667.29087,0.00125
665.36228,0.00000
663.43370,0.00029
661.50511,0.00038
659.57652,0.00039
657.64794,0.00068
655.71935,0.00116
653.79076,0.00215
651.86218,0.00272
649.93359,0.00259
648.00500,0.00208
646.07642,0.00232
644.14783,0.00308
642.21925,0.00355
640.29066,0.00450
638.36207,0.00531
636.43349,0.00622
634.50490,0.00626
632.57631,0.00526
630.64773,0.00679
628.71914,0.00890
626.79056,0.00932
624.86197,0.01019
622.93338,0.01030
621.00480,0.00986
619.07621,0.01037
617.14762,0.00933
615.21904,0.00850
613.29045,0.01018
611.36186,0.01193
609.43328,0.01402
607.50469,0.01617
605.57611,0.01720
603.64752,0.01923
601.71893,0.02171
599.79035,0.02273
597.86176,0.02432
595.93317,0.02686
594.00459,0.02923
592.07600,0.03206
590.14742,0.03492
588.21883,0.03829
586.29024,0.04160
584.36166,0.04513
582.43307,0.05058
580.50448,0.05443
578.57590,0.05802
576.64731,0.06427
574.71872,0.06956
572.79014,0.07266
570.86155,0.07591
568.93297,0.08138
567.00438,0.08639
565.07579,0.09027
563.14721,0.09628
561.21862,0.10331
559.29003,0.10792
557.36145,0.11002
555.43286,0.11410
553.50427,0.11966
551.57569,0.12506
549.64710,0.13071
547.71852,0.13480
545.78993,0.14014
543.86134,0.14644
541.93276,0.15105
540.00417,0.15497
538.07558,0.15924
536.14700,0.16465
534.21841,0.16852
532.28983,0.17041
530.36124,0.17136
528.43265,0.17113
526.50407,0.17035
524.57548,0.16935
522.64689,0.16767
520.71831,0.16301
518.78972,0.15751
516.86113,0.15267
514.93255,0.14732
513.00396,0.14248
511.07538,0.13835
509.14679,0.13475
507.21820,0.13088
505.28962,0.12875
503.36103,0.12931
501.43244,0.13149
499.50386,0.13538
497.57527,0.14165
495.64669,0.15085
493.71810,0.15927
491.78951,0.16768
489.86093,0.18015
487.93234,0.19477
486.00375,0.20599
484.07517,0.21530
482.14658,0.23010
480.21799,0.24553
478.28941,0.25403
476.36082,0.25656
474.43224,0.26000
472.50365,0.26078
470.57506,0.25550
468.64648,0.25171
466.71789,0.24276
464.78930,0.22941
462.86072,0.21440
460.93213,0.20017
459.00355,0.19101
457.07496,0.18102
455.14637,0.16968
453.21779,0.15830
451.28920,0.15137
449.36061,0.14506
447.43203,0.13573
445.50344,0.12500
443.57485,0.11699
441.64627,0.11226
439.71768,0.10249
437.78910,0.09832
435.86051,0.09637
433.93192,0.09173
432.00334,0.09307
430.07475,0.09478
428.14616,0.09371
426.21758,0.08755
424.28899,0.08062
422.36040,0.06843
420.43182,0.06164
418.50323,0.06488
416.57465,0.05598
414.64606,0.04460
412.71747,0.03592
410.78889,0.02970
408.86030,0.02036
406.93171,0.01441
405.00313,0.01744
403.07454,0.00917
401.14596,0.00012
399.21737,0.00000
