3747.24323,0.00000
3745.31464,0.00121
3743.38605,0.00070
3741.45747,0.00101
3739.52888,0.00242
3737.60030,0.00318
3735.67171,0.00344
3733.74312,0.00363
3731.81454,0.00393
3729.88595,0.00442
3727.95736,0.00573
3726.02878,0.00679
3724.10019,0.00761
3722.17161,0.00902
3720.24302,0.01030
3718.31443,0.01217
3716.38585,0.01453
3714.45726,0.01725
3712.52867,0.02003
3710.60009,0.02260
3708.67150,0.02598
3706.74291,0.02951
3704.81433,0.03317
3702.88574,0.03658
3700.95716,0.03930
3699.02857,0.04156
3697.09998,0.04284
3695.17140,0.04373
3693.24281,0.04418
3691.31422,0.04474
3689.38564,0.04547
3687.45705,0.04624
3685.52846,0.04818
3683.59988,0.05095
3681.67129,0.05412
3679.74271,0.05738
3677.81412,0.06134
3675.88553,0.06530
3673.95695,0.06906
3672.02836,0.07410
3670.09977,0.07872
3668.17119,0.08285
3666.24260,0.08762
3664.31402,0.09229
3662.38543,0.09685
3660.45684,0.10129
3658.52826,0.10564
3656.59967,0.10945
3654.67108,0.11295
3652.74250,0.11704
3650.81391,0.12070
3648.88532,0.12344
3646.95674,0.12615
3645.02815,0.12942
3643.09957,0.13270
3641.17098,0.13565
3639.24239,0.13851
3637.31381,0.14139
3635.38522,0.14468
3633.45663,0.14792
3631.52805,0.15110
3629.59946,0.15373
3627.67088,0.15493
3625.74229,0.15652
3623.81370,0.15833
3621.88512,0.15921
3619.95653,0.15884
3618.02794,0.15715
3616.09936,0.15584
3614.17077,0.15473
3612.24218,0.15324
3610.31360,0.15211
3608.38501,0.15094
3606.45643,0.14977
3604.52784,0.14905
3602.59925,0.14838
3600.67067,0.14773
3598.74208,0.14729
3596.81349,0.14678
3594.88491,0.14611
3592.95632,0.14565
3591.02774,0.14573
3589.09915,0.14568
3587.17056,0.14524
3585.24198,0.14526
3583.31339,0.14581
3581.38480,0.14655
3579.45622,0.14714
3577.52763,0.14755
3575.59904,0.14826
3573.67046,0.14921
3571.74187,0.15014
3569.81329,0.15105
3567.88470,0.15191
3565.95611,0.15272
3564.02753,0.15364
3562.09894,0.15465
3560.17035,0.15561
3558.24177,0.15660
3556.31318,0.15767
3554.38459,0.15880
3552.45601,0.15970
3550.52742,0.16060
3548.59884,0.16182
3546.67025,0.16300
3544.74166,0.16402
3542.81308,0.16503
3540.88449,0.16611
3538.95590,0.16725
3537.02732,0.16837
3535.09873,0.16941
3533.17015,0.17037
3531.24156,0.17167
3529.31297,0.17301
3527.38439,0.17395
3525.45580,0.17480
3523.52721,0.17571
3521.59863,0.17691
3519.67004,0.17811
3517.74145,0.17900
3515.81287,0.17995
3513.88428,0.18111
3511.95570,0.18225
3510.02711,0.18333
3508.09852,0.18457
3506.16994,0.18578
3504.24135,0.18663
3502.31276,0.18740
3500.38418,0.18835
3498.45559,0.18951
3496.52701,0.19079
3494.59842,0.19186
3492.66983,0.19267
3490.74125,0.19358
3488.81266,0.19447
3486.88407,0.19537
3484.95549,0.19635
3483.02690,0.19726
3481.09831,0.19813
3479.16973,0.19894
3477.24114,0.19990
3475.31256,0.20098
3473.38397,0.20182
3471.45538,0.20250
3469.52680,0.20334
3467.59821,0.20430
3465.66962,0.20506
3463.74104,0.20578
3461.81245,0.20674
3459.88386,0.20765
3457.95528,0.20833
3456.02669,0.20908
3454.09811,0.20994
3452.16952,0.21054
3450.24093,0.21113
3448.31235,0.21204
3446.38376,0.21283
3444.45517,0.21341
3442.52659,0.21408
3440.59800,0.21461
3438.66942,0.21516
3436.74083,0.21587
3434.81224,0.21648
3432.88366,0.21715
3430.95507,0.21788
3429.02648,0.21851
3427.09790,0.21895
3425.16931,0.21952
3423.24072,0.22032
3421.31214,0.22079
3419.38355,0.22123
3417.45497,0.22168
3415.52638,0.22196
3413.59779,0.22234
3411.66921,0.22294
3409.74062,0.22365
3407.81203,0.22397
3405.88345,0.22398
3403.95486,0.22417
3402.02628,0.22456
3400.09769,0.22495
3398.16910,0.22525
3396.24052,0.22557
3394.31193,0.22586
3392.38334,0.22604
3390.45476,0.22623
3388.52617,0.22668
3386.59758,0.22708
3384.66900,0.22715
3382.74041,0.22732
3380.81183,0.22748
3378.88324,0.22765
3376.95465,0.22783
3375.02607,0.22794
3373.09748,0.22813
3371.16889,0.22826
3369.24031,0.22852
3367.31172,0.22882
3365.38314,0.22887
3363.45455,0.22894
3361.52596,0.22917
3359.59738,0.22951
3357.66879,0.22972
3355.74020,0.22978
3353.81162,0.22997
3351.88303,0.23008
3349.95444,0.22997
3348.02586,0.23010
3346.09727,0.23031
3344.16869,0.23033
3342.24010,0.23022
3340.31151,0.23005
3338.38293,0.23014
3336.45434,0.23025
3334.52575,0.23015
3332.59717,0.23008
3330.66858,0.23019
3328.73999,0.23028
3326.81141,0.23023
3324.88282,0.23014
3322.95424,0.22991
3321.02565,0.22975
3319.09706,0.22979
3317.16848,0.22990
3315.23989,0.22995
3313.31130,0.22969
3311.38272,0.22936
3309.45413,0.22913
3307.52555,0.22897
3305.59696,0.22893
3303.66837,0.22880
3301.73979,0.22862
3299.81120,0.22850
3297.88261,0.22833
3295.95403,0.22808
3294.02544,0.22781
3292.09685,0.22743
3290.16827,0.22693
3288.23968,0.22654
3286.31110,0.22619
3284.38251,0.22578
3282.45392,0.22528
3280.52534,0.22473
3278.59675,0.22414
3276.66816,0.22342
3274.73958,0.22270
3272.81099,0.22204
3270.88241,0.22130
3268.95382,0.22051
3267.02523,0.21978
3265.09665,0.21899
3263.16806,0.21807
3261.23947,0.21710
3259.31089,0.21615
3257.38230,0.21518
3255.45371,0.21419
3253.52513,0.21329
3251.59654,0.21246
3249.66796,0.21156
3247.73937,0.21069
3245.81078,0.20974
3243.88220,0.20881
3241.95361,0.20813
3240.02502,0.20752
3238.09644,0.20660
3236.16785,0.20549
3234.23927,0.20458
3232.31068,0.20380
3230.38209,0.20300
3228.45351,0.20231
3226.52492,0.20167
3224.59633,0.20090
3222.66775,0.20000
3220.73916,0.19914
3218.81057,0.19833
3216.88199,0.19769
3214.95340,0.19713
3213.02482,0.19632
3211.09623,0.19537
3209.16764,0.19453
3207.23906,0.19378
3205.31047,0.19305
3203.38188,0.19228
3201.45330,0.19148
3199.52471,0.19060
3197.59612,0.18974
3195.66754,0.18890
3193.73895,0.18806
3191.81037,0.18741
3189.88178,0.18662
3187.95319,0.18560
3186.02461,0.18468
3184.09602,0.18385
3182.16743,0.18305
3180.23885,0.18213
3178.31026,0.18115
3176.38168,0.18027
3174.45309,0.17935
3172.52450,0.17836
3170.59592,0.17743
3168.66733,0.17660
3166.73874,0.17576
3164.81016,0.17482
3162.88157,0.17395
3160.95298,0.17322
3159.02440,0.17250
3157.09581,0.17165
3155.16723,0.17082
3153.23864,0.17006
3151.31005,0.16925
3149.38147,0.16845
3147.45288,0.16768
3145.52429,0.16688
3143.59571,0.16619
3141.66712,0.16557
3139.73854,0.16489
3137.80995,0.16409
3135.88136,0.16326
3133.95278,0.16264
3132.02419,0.16217
3130.09560,0.16173
3128.16702,0.16116
3126.23843,0.16055
3124.30984,0.16007
3122.38126,0.15947
3120.45267,0.15887
3118.52409,0.15838
3116.59550,0.15801
3114.66691,0.15758
3112.73833,0.15699
3110.80974,0.15646
3108.88115,0.15598
3106.95257,0.15554
3105.02398,0.15518
3103.09540,0.15489
3101.16681,0.15457
3099.23822,0.15400
3097.30964,0.15344
3095.38105,0.15310
3093.45246,0.15278
3091.52388,0.15238
3089.59529,0.15197
3087.66670,0.15154
3085.73812,0.15109
3083.80953,0.15060
3081.88095,0.15011
3079.95236,0.14971
3078.02377,0.14916
3076.09519,0.14857
3074.16660,0.14812
3072.23801,0.14760
3070.30943,0.14711
3068.38084,0.14667
3066.45225,0.14608
3064.52367,0.14538
3062.59508,0.14469
3060.66650,0.14385
3058.73791,0.14304
3056.80932,0.14257
3054.88074,0.14203
3052.95215,0.14130
3051.02356,0.14057
3049.09498,0.13991
3047.16639,0.13934
3045.23781,0.13871
3043.30922,0.13808
3041.38063,0.13744
3039.45205,0.13681
3037.52346,0.13636
3035.59487,0.13591
3033.66629,0.13541
3031.73770,0.13494
3029.80911,0.13454
3027.88053,0.13421
3025.95194,0.13380
3024.02336,0.13337
3022.09477,0.13305
3020.16618,0.13281
3018.23760,0.13268
3016.30901,0.13252
3014.38042,0.13242
3012.45184,0.13250
3010.52325,0.13252
3008.59467,0.13268
3006.66608,0.13308
3004.73749,0.13342
3002.80891,0.13386
3000.88032,0.13443
2998.95173,0.13498
2997.02315,0.13566
2995.09456,0.13652
2993.16597,0.13749
2991.23739,0.13850
2989.30880,0.13953
2987.38022,0.14092
2985.45163,0.14262
2983.52304,0.14433
2981.59446,0.14619
2979.66587,0.14824
2977.73728,0.15037
2975.80870,0.15262
2973.88011,0.15495
2971.95153,0.15744
2970.02294,0.16016
2968.09435,0.16293
2966.16577,0.16565
2964.23718,0.16843
2962.30859,0.17107
2960.38001,0.17353
2958.45142,0.17570
2956.52283,0.17747
2954.59425,0.17912
2952.66566,0.18080
2950.73708,0.18268
2948.80849,0.18498
2946.87990,0.18778
2944.95132,0.19134
2943.02273,0.19559
2941.09414,0.20041
2939.16556,0.20563
2937.23697,0.21114
2935.30838,0.21680
2933.37980,0.22225
2931.45121,0.22743
2929.52263,0.23223
2927.59404,0.23627
2925.66545,0.23942
2923.73687,0.24136
2921.80828,0.24155
2919.87969,0.23966
2917.95111,0.23516
2916.02252,0.22731
2914.09394,0.21717
2912.16535,0.20729
2910.23676,0.19914
2908.30818,0.19281
2906.37959,0.18782
2904.45100,0.18364
2902.52242,0.18008
2900.59383,0.17679
2898.66524,0.17359
2896.73666,0.17054
2894.80807,0.16759
2892.87949,0.16476
2890.95090,0.16210
2889.02231,0.15960
2887.09373,0.15717
2885.16514,0.15501
2883.23655,0.15347
2881.30797,0.15230
2879.37938,0.15138
2877.45080,0.15095
2875.52221,0.15084
2873.59362,0.15091
2871.66504,0.15120
2869.73645,0.15159
2867.80786,0.15226
2865.87928,0.15368
2863.95069,0.15605
2862.02210,0.15971
2860.09352,0.16481
2858.16493,0.17097
2856.23635,0.17745
2854.30776,0.18269
2852.37917,0.18495
2850.45059,0.18239
2848.52200,0.17397
2846.59341,0.16179
2844.66483,0.14954
2842.73624,0.13914
2840.80766,0.13064
2838.87907,0.12387
2836.95048,0.11845
2835.02190,0.11405
2833.09331,0.11043
2831.16472,0.10730
2829.23614,0.10470
2827.30755,0.10241
2825.37896,0.10034
2823.45038,0.09851
2821.52179,0.09679
2819.59321,0.09524
2817.66462,0.09382
2815.73603,0.09255
2813.80745,0.09138
2811.87886,0.09021
2809.95027,0.08904
2808.02169,0.08795
2806.09310,0.08696
2804.16451,0.08595
2802.23593,0.08508
2800.30734,0.08432
2798.37876,0.08358
2796.45017,0.08282
2794.52158,0.08193
2792.59300,0.08112
2790.66441,0.08048
2788.73582,0.07983
2786.80724,0.07911
2784.87865,0.07842
2782.95007,0.07775
2781.02148,0.07714
2779.09289,0.07665
2777.16431,0.07608
2775.23572,0.07550
2773.30713,0.07493
2771.37855,0.07443
2769.44996,0.07402
2767.52137,0.07347
2765.59279,0.07296
2763.66420,0.07261
2761.73562,0.07225
2759.80703,0.07180
2757.87844,0.07137
2755.94986,0.07096
2754.02127,0.07059
2752.09268,0.07028
2750.16410,0.06983
2748.23551,0.06948
2746.30693,0.06925
2744.37834,0.06887
2742.44975,0.06849
2740.52117,0.06818
2738.59258,0.06781
2736.66399,0.06742
2734.73541,0.06714
2732.80682,0.06682
2730.87823,0.06641
2728.94965,0.06593
2727.02106,0.06544
2725.09248,0.06515
2723.16389,0.06485
2721.23530,0.06440
2719.30672,0.06382
2717.37813,0.06323
2715.44954,0.06276
2713.52096,0.06238
2711.59237,0.06203
2709.66379,0.06158
2707.73520,0.06111
2705.80661,0.06079
2703.87803,0.06046
2701.94944,0.06005
2700.02085,0.05961
2698.09227,0.05930
2696.16368,0.05900
2694.23509,0.05863
2692.30651,0.05833
2690.37792,0.05810
2688.44934,0.05783
2686.52075,0.05755
2684.59216,0.05721
2682.66358,0.05681
2680.73499,0.05644
2678.80640,0.05605
2676.87782,0.05574
2674.94923,0.05549
2673.02064,0.05519
2671.09206,0.05488
2669.16347,0.05451
2667.23489,0.05417
2665.30630,0.05384
2663.37771,0.05343
2661.44913,0.05302
2659.52054,0.05263
2657.59195,0.05234
2655.66337,0.05207
2653.73478,0.05180
2651.80620,0.05158
2649.87761,0.05122
2647.94902,0.05085
2646.02044,0.05055
2644.09185,0.05017
2642.16326,0.04983
2640.23468,0.04959
2638.30609,0.04936
2636.37750,0.04901
2634.44892,0.04863
2632.52033,0.04842
2630.59175,0.04819
2628.66316,0.04780
2626.73457,0.04738
2624.80599,0.04694
2622.87740,0.04659
2620.94881,0.04631
2619.02023,0.04604
2617.09164,0.04576
2615.16306,0.04544
2613.23447,0.04517
2611.30588,0.04481
2609.37730,0.04445
2607.44871,0.04417
2605.52012,0.04387
2603.59154,0.04354
2601.66295,0.04321
2599.73436,0.04295
2597.80578,0.04267
2595.87719,0.04238
2593.94861,0.04206
2592.02002,0.04169
2590.09143,0.04136
2588.16285,0.04099
2586.23426,0.04065
2584.30567,0.04038
2582.37709,0.04008
2580.44850,0.03979
2578.51991,0.03951
2576.59133,0.03923
2574.66274,0.03894
2572.73416,0.03866
2570.80557,0.03837
2568.87698,0.03810
2566.94840,0.03783
2565.01981,0.03749
2563.09122,0.03724
2561.16264,0.03701
2559.23405,0.03670
2557.30547,0.03644
2555.37688,0.03621
2553.44829,0.03601
2551.51971,0.03585
2549.59112,0.03563
2547.66253,0.03535
2545.73395,0.03507
2543.80536,0.03482
2541.87677,0.03464
2539.94819,0.03445
2538.01960,0.03424
2536.09102,0.03405
2534.16243,0.03380
2532.23384,0.03353
2530.30526,0.03327
2528.37667,0.03302
2526.44808,0.03275
2524.51950,0.03244
2522.59091,0.03226
2520.66233,0.03206
2518.73374,0.03173
2516.80515,0.03146
2514.87657,0.03121
2512.94798,0.03098
2511.01939,0.03072
2509.09081,0.03037
2507.16222,0.03005
2505.23363,0.02987
2503.30505,0.02966
2501.37646,0.02937
2499.44788,0.02906
2497.51929,0.02866
2495.59070,0.02834
2493.66212,0.02813
2491.73353,0.02786
2489.80494,0.02758
2487.87636,0.02727
2485.94777,0.02698
2484.01919,0.02677
2482.09060,0.02651
2480.16201,0.02624
2478.23343,0.02602
2476.30484,0.02575
2474.37625,0.02542
2472.44767,0.02510
2470.51908,0.02475
2468.59049,0.02443
2466.66191,0.02418
2464.73332,0.02385
2462.80474,0.02355
2460.87615,0.02327
2458.94756,0.02296
2457.01898,0.02267
2455.09039,0.02241
2453.16180,0.02218
2451.23322,0.02183
2449.30463,0.02146
2447.37604,0.02117
2445.44746,0.02087
2443.51887,0.02058
2441.59029,0.02028
2439.66170,0.01997
2437.73311,0.01964
2435.80453,0.01937
2433.87594,0.01914
2431.94735,0.01888
2430.01877,0.01862
2428.09018,0.01831
2426.16160,0.01801
2424.23301,0.01769
2422.30442,0.01734
2420.37584,0.01706
2418.44725,0.01684
2416.51866,0.01663
2414.59008,0.01632
2412.66149,0.01600
2410.73290,0.01572
2408.80432,0.01544
2406.87573,0.01520
2404.94715,0.01498
2403.01856,0.01475
2401.08997,0.01450
2399.16139,0.01428
2397.23280,0.01404
2395.30421,0.01377
2393.37563,0.01349
2391.44704,0.01322
2389.51846,0.01304
2387.58987,0.01285
2385.66128,0.01259
2383.73270,0.01232
2381.80411,0.01208
2379.87552,0.01187
2377.94694,0.01157
2376.01835,0.01131
2374.08976,0.01106
2372.16118,0.01067
2370.23259,0.01036
2368.30401,0.01015
2366.37542,0.00981
2364.44683,0.00947
2362.51825,0.00925
2360.58966,0.00906
2358.66107,0.00889
2356.73249,0.00871
2354.80390,0.00859
2352.87532,0.00853
2350.94673,0.00850
2349.01814,0.00861
2347.08956,0.00866
2345.16097,0.00847
2343.23238,0.00823
2341.30380,0.00810
2339.37521,0.00800
2337.44662,0.00777
2335.51804,0.00745
2333.58945,0.00722
2331.66087,0.00705
2329.73228,0.00683
2327.80369,0.00669
2325.87511,0.00662
2323.94652,0.00654
2322.01793,0.00652
2320.08935,0.00645
2318.16076,0.00630
2316.23217,0.00624
2314.30359,0.00621
2312.37500,0.00612
2310.44642,0.00597
2308.51783,0.00581
2306.58924,0.00564
2304.66066,0.00551
2302.73207,0.00545
2300.80348,0.00530
2298.87490,0.00517
2296.94631,0.00505
2295.01773,0.00493
2293.08914,0.00484
2291.16055,0.00473
2289.23197,0.00459
2287.30338,0.00441
2285.37479,0.00425
2283.44621,0.00421
2281.51762,0.00416
2279.58903,0.00410
2277.66045,0.00405
2275.73186,0.00391
2273.80328,0.00377
2271.87469,0.00369
2269.94610,0.00364
2268.01752,0.00358
2266.08893,0.00352
2264.16034,0.00348
2262.23176,0.00342
2260.30317,0.00332
2258.37459,0.00321
2256.44600,0.00312
2254.51741,0.00300
2252.58883,0.00289
2250.66024,0.00286
2248.73165,0.00278
2246.80307,0.00266
2244.87448,0.00262
2242.94589,0.00255
2241.01731,0.00247
2239.08872,0.00242
2237.16014,0.00230
2235.23155,0.00218
2233.30296,0.00214
2231.37438,0.00200
2229.44579,0.00185
2227.51720,0.00181
2225.58862,0.00176
2223.66003,0.00167
2221.73145,0.00157
2219.80286,0.00145
2217.87427,0.00135
2215.94569,0.00126
2214.01710,0.00114
2212.08851,0.00103
2210.15993,0.00101
2208.23134,0.00098
2206.30275,0.00090
2204.37417,0.00086
2202.44558,0.00080
2200.51700,0.00071
2198.58841,0.00064
2196.65982,0.00060
2194.73124,0.00057
2192.80265,0.00058
2190.87406,0.00057
2188.94548,0.00051
2187.01689,0.00051
2185.08830,0.00054
2183.15972,0.00050
2181.23113,0.00041
2179.30255,0.00041
2177.37396,0.00045
2175.44537,0.00036
2173.51679,0.00030
2171.58820,0.00018
2169.65961,0.00000
2167.73103,0.00008
2165.80244,0.00028
2163.87386,0.00032
2161.94527,0.00030
2160.01668,0.00022
2158.08810,0.00013
2156.15951,0.00019
2154.23092,0.00025
2152.30234,0.00028
2150.37375,0.00036
2148.44516,0.00035
2146.51658,0.00029
2144.58799,0.00025
2142.65941,0.00024
2140.73082,0.00022
2138.80223,0.00017
2136.87365,0.00020
2134.94506,0.00028
2133.01647,0.00028
2131.08789,0.00014
2129.15930,0.00000
2127.23072,0.00000
2125.30213,0.00006
2123.37354,0.00010
2121.44496,0.00005
2119.51637,-0.00000
2117.58778,-0.00000
2115.65920,-0.00005
2113.73061,-0.00008
2111.80202,-0.00007
2109.87344,-0.00007
2107.94485,-0.00005
2106.01627,-0.00009
2104.08768,-0.00016
2102.15909,-0.00014
2100.23051,-0.00010
2098.30192,-0.00009
2096.37333,-0.00010
2094.44475,-0.00009
2092.51616,-0.00001
2090.58758,0.00000
2088.65899,-0.00001
2086.73040,0.00005
2084.80182,0.00005
2082.87323,0.00000
2080.94464,0.00000
2079.01606,0.00001
2077.08747,0.00002
2075.15888,0.00001
2073.23030,0.00005
2071.30171,0.00004
2069.37313,0.00004
2067.44454,0.00009
2065.51595,-0.00003
2063.58737,-0.00006
2061.65878,0.00002
2059.73019,0.00003
2057.80161,0.00009
2055.87302,0.00019
2053.94443,0.00032
2052.01585,0.00040
2050.08726,0.00039
2048.15868,0.00046
2046.23009,0.00065
2044.30150,0.00082
2042.37292,0.00094
2040.44433,0.00111
2038.51574,0.00134
2036.58716,0.00161
2034.65857,0.00183
2032.72999,0.00200
2030.80140,0.00223
2028.87281,0.00236
2026.94423,0.00237
2025.01564,0.00237
2023.08705,0.00242
2021.15847,0.00253
2019.22988,0.00265
2017.30129,0.00271
2015.37271,0.00273
2013.44412,0.00289
2011.51554,0.00315
2009.58695,0.00338
2007.65836,0.00353
2005.72978,0.00359
2003.80119,0.00371
2001.87260,0.00381
1999.94402,0.00383
1998.01543,0.00384
1996.08685,0.00384
1994.15826,0.00382
1992.22967,0.00372
1990.30109,0.00361
1988.37250,0.00354
1986.44391,0.00343
1984.51533,0.00327
1982.58674,0.00316
1980.65815,0.00309
1978.72957,0.00303
1976.80098,0.00292
1974.87240,0.00270
1972.94381,0.00256
1971.01522,0.00247
1969.08664,0.00230
1967.15805,0.00204
1965.22946,0.00182
1963.30088,0.00170
1961.37229,0.00152
1959.44371,0.00137
1957.51512,0.00126
1955.58653,0.00114
1953.65795,0.00103
1951.72936,0.00090
1949.80077,0.00081
1947.87219,0.00079
1945.94360,0.00079
1944.01501,0.00066
1942.08643,0.00045
1940.15784,0.00033
1938.22926,0.00025
1936.30067,0.00019
1934.37208,0.00011
1932.44350,0.00011
1930.51491,0.00012
1928.58632,0.00001
1926.65774,-0.00006
1924.72915,0.00000
1922.80056,0.00001
1920.87198,0.00006
1918.94339,0.00020
1917.01481,0.00030
1915.08622,0.00057
1913.15763,0.00103
1911.22905,0.00148
1909.30046,0.00201
1907.37187,0.00251
1905.44329,0.00300
1903.51470,0.00348
1901.58612,0.00398
1899.65753,0.00462
1897.72894,0.00519
1895.80036,0.00572
1893.87177,0.00617
1891.94318,0.00658
1890.01460,0.00704
1888.08601,0.00744
1886.15742,0.00781
1884.22884,0.00801
1882.30025,0.00812
1880.37167,0.00824
1878.44308,0.00837
1876.51449,0.00849
1874.58591,0.00849
1872.65732,0.00854
1870.72873,0.00856
1868.80015,0.00839
1866.87156,0.00806
1864.94298,0.00768
1863.01439,0.00724
1861.08580,0.00663
1859.15722,0.00591
1857.22863,0.00514
1855.30004,0.00432
1853.37146,0.00345
1851.44287,0.00269
1849.51428,0.00203
1847.58570,0.00145
1845.65711,0.00102
1843.72853,0.00042
1841.79994,0.00000
1839.87135,-0.00025
1837.94277,-0.00052
1836.01418,-0.00062
1834.08559,-0.00065
1832.15701,-0.00061
1830.22842,-0.00054
1828.29984,-0.00046
1826.37125,-0.00020
1824.44266,-0.00001
1822.51408,0.00030
1820.58549,0.00081
1818.65690,0.00130
1816.72832,0.00188
1814.79973,0.00265
1812.87114,0.00351
1810.94256,0.00438
1809.01397,0.00533
1807.08539,0.00643
1805.15680,0.00772
1803.22821,0.00909
1801.29963,0.01042
1799.37104,0.01182
1797.44245,0.01342
1795.51387,0.01523
1793.58528,0.01716
1791.65669,0.01904
1789.72811,0.02097
1787.79952,0.02307
1785.87094,0.02517
1783.94235,0.02732
1782.01376,0.02945
1780.08518,0.03153
1778.15659,0.03364
1776.22800,0.03571
1774.29942,0.03785
1772.37083,0.03979
1770.44225,0.04167
1768.51366,0.04378
1766.58507,0.04568
1764.65649,0.04766
1762.72790,0.04973
1760.79931,0.05193
1758.87073,0.05449
1756.94214,0.05719
1755.01355,0.06012
1753.08497,0.06331
1751.15638,0.06671
1749.22780,0.07040
1747.29921,0.07452
1745.37062,0.07892
1743.44204,0.08346
1741.51345,0.08807
1739.58486,0.09254
1737.65628,0.09684
1735.72769,0.10081
1733.79911,0.10408
1731.87052,0.10703
1729.94193,0.11011
1728.01335,0.11288
1726.08476,0.11564
1724.15617,0.11858
1722.22759,0.12147
1720.29900,0.12453
1718.37041,0.12745
1716.44183,0.13009
1714.51324,0.13256
1712.58466,0.13501
1710.65607,0.13738
1708.72748,0.13948
1706.79890,0.14163
1704.87031,0.14386
1702.94172,0.14643
1701.01314,0.14902
1699.08455,0.15147
1697.15596,0.15450
1695.22738,0.15735
1693.29879,0.16020
1691.37021,0.16334
1689.44162,0.16621
1687.51303,0.16945
1685.58445,0.17261
1683.65586,0.17521
1681.72727,0.17826
1679.79869,0.18157
1677.87010,0.18478
1675.94152,0.18760
1674.01293,0.19010
1672.08434,0.19280
1670.15576,0.19524
1668.22717,0.19732
1666.29858,0.19934
1664.37000,0.20123
1662.44141,0.20264
1660.51282,0.20376
1658.58424,0.20455
1656.65565,0.20503
1654.72707,0.20553
1652.79848,0.20463
1650.86989,0.20378
1648.94131,0.20402
1647.01272,0.20360
1645.08413,0.20277
1643.15555,0.20223
1641.22696,0.20204
1639.29838,0.20196
1637.36979,0.20185
1635.44120,0.20140
1633.51262,0.20081
1631.58403,0.20048
1629.65544,0.19955
1627.72686,0.19820
1625.79827,0.19646
1623.86968,0.19430
1621.94110,0.19173
1620.01251,0.18948
1618.08393,0.18761
1616.15534,0.18499
1614.22675,0.18280
1612.29817,0.18082
1610.36958,0.17860
1608.44099,0.17661
1606.51241,0.17467
1604.58382,0.17290
1602.65524,0.17108
1600.72665,0.16929
1598.79806,0.16742
1596.86948,0.16560
1594.94089,0.16379
1593.01230,0.16192
1591.08372,0.16005
1589.15513,0.15802
1587.22654,0.15608
1585.29796,0.15403
1583.36937,0.15207
1581.44079,0.15006
1579.51220,0.14834
1577.58361,0.14693
1575.65503,0.14490
1573.72644,0.14355
1571.79785,0.14300
1569.86927,0.14227
1567.94068,0.14164
1566.01209,0.14147
1564.08351,0.14145
1562.15492,0.14178
1560.22634,0.14227
1558.29775,0.14206
1556.36916,0.14237
1554.44058,0.14305
1552.51199,0.14334
1550.58340,0.14361
1548.65482,0.14365
1546.72623,0.14381
1544.79765,0.14377
1542.86906,0.14352
1540.94047,0.14311
1539.01189,0.14190
1537.08330,0.14112
1535.15471,0.14061
1533.22613,0.13957
1531.29754,0.13836
1529.36895,0.13731
1527.44037,0.13609
1525.51178,0.13478
1523.58320,0.13387
1521.65461,0.13288
1519.72602,0.13219
1517.79744,0.13192
1515.86885,0.13091
1513.94026,0.12906
1512.01168,0.12653
1510.08309,0.12378
1508.15451,0.12090
1506.22592,0.11692
1504.29733,0.11282
1502.36875,0.10934
1500.44016,0.10566
1498.51157,0.10194
1496.58299,0.09815
1494.65440,0.09445
1492.72581,0.09162
1490.79723,0.08912
1488.86864,0.08677
1486.94006,0.08508
1485.01147,0.08402
1483.08288,0.08370
1481.15430,0.08391
1479.22571,0.08496
1477.29712,0.08709
1475.36854,0.09023
1473.43995,0.09481
1471.51137,0.10071
1469.58278,0.10692
1467.65419,0.11207
1465.72561,0.11502
1463.79702,0.11634
1461.86843,0.11705
1459.93985,0.11781
1458.01126,0.11864
1456.08267,0.11896
1454.15409,0.11911
1452.22550,0.11896
1450.29692,0.11849
1448.36833,0.11807
1446.43974,0.11759
1444.51116,0.11722
1442.58257,0.11691
1440.65398,0.11672
1438.72540,0.11678
1436.79681,0.11661
1434.86822,0.11631
1432.93964,0.11636
1431.01105,0.11643
1429.08247,0.11633
1427.15388,0.11647
1425.22529,0.11677
1423.29671,0.11707
1421.36812,0.11750
1419.43953,0.11779
1417.51095,0.11790
1415.58236,0.11808
1413.65378,0.11814
1411.72519,0.11798
1409.79660,0.11767
1407.86802,0.11737
1405.93943,0.11720
1404.01084,0.11680
1402.08226,0.11620
1400.15367,0.11532
1398.22508,0.11414
1396.29650,0.11307
1394.36791,0.11196
1392.43933,0.11104
1390.51074,0.11065
1388.58215,0.11032
1386.65357,0.10949
1384.72498,0.10878
1382.79639,0.10914
1380.86781,0.11010
1378.93922,0.11064
1377.01064,0.11044
1375.08205,0.10963
1373.15346,0.10831
1371.22488,0.10696
1369.29629,0.10579
1367.36770,0.10440
1365.43912,0.10290
1363.51053,0.10130
1361.58194,0.09974
1359.65336,0.09845
1357.72477,0.09725
1355.79619,0.09636
1353.86760,0.09568
1351.93901,0.09480
1350.01043,0.09393
1348.08184,0.09326
1346.15325,0.09260
1344.22467,0.09199
1342.29608,0.09148
1340.36750,0.09089
1338.43891,0.09026
1336.51032,0.08975
1334.58174,0.08931
1332.65315,0.08885
1330.72456,0.08851
1328.79598,0.08828
1326.86739,0.08798
1324.93880,0.08767
1323.01022,0.08730
1321.08163,0.08689
1319.15305,0.08657
1317.22446,0.08638
1315.29587,0.08616
1313.36729,0.08586
1311.43870,0.08563
1309.51011,0.08545
1307.58153,0.08519
1305.65294,0.08497
1303.72435,0.08477
1301.79577,0.08458
1299.86718,0.08452
1297.93860,0.08470
1296.01001,0.08501
1294.08142,0.08536
1292.15284,0.08600
1290.22425,0.08695
1288.29566,0.08796
1286.36708,0.08918
1284.43849,0.09075
1282.50991,0.09229
1280.58132,0.09377
1278.65273,0.09545
1276.72415,0.09733
1274.79556,0.09928
1272.86697,0.10113
1270.93839,0.10302
1269.00980,0.10509
1267.08121,0.10736
1265.15263,0.10985
1263.22404,0.11260
1261.29546,0.11576
1259.36687,0.11919
1257.43828,0.12298
1255.50970,0.12739
1253.58111,0.13220
1251.65252,0.13739
1249.72394,0.14284
1247.79535,0.14821
1245.86677,0.15328
1243.93818,0.15789
1242.00959,0.16233
1240.08101,0.16659
1238.15242,0.17035
1236.22383,0.17388
1234.29525,0.17725
1232.36666,0.18033
1230.43807,0.18305
1228.50949,0.18545
1226.58090,0.18772
1224.65232,0.19000
1222.72373,0.19225
1220.79514,0.19439
1218.86656,0.19650
1216.93797,0.19867
1215.00938,0.20089
1213.08080,0.20310
1211.15221,0.20530
1209.22363,0.20749
1207.29504,0.20951
1205.36645,0.21150
1203.43787,0.21343
1201.50928,0.21512
1199.58069,0.21682
1197.65211,0.21843
1195.72352,0.21990
1193.79493,0.22153
1191.86635,0.22325
1189.93776,0.22490
1188.00918,0.22649
1186.08059,0.22822
1184.15200,0.23004
1182.22342,0.23186
1180.29483,0.23400
1178.36624,0.23664
1176.43766,0.23931
1174.50907,0.24161
1172.58048,0.24407
1170.65190,0.24703
1168.72331,0.25013
1166.79473,0.25311
1164.86614,0.25573
1162.93755,0.25797
1161.00897,0.25970
1159.08038,0.26082
1157.15179,0.26187
1155.22321,0.26310
1153.29462,0.26430
1151.36604,0.26568
1149.43745,0.26743
1147.50886,0.26944
1145.58028,0.27148
1143.65169,0.27385
1141.72310,0.27691
1139.79452,0.28021
1137.86593,0.28329
1135.93734,0.28653
1134.00876,0.29051
1132.08017,0.29492
1130.15159,0.29906
1128.22300,0.30341
1126.29441,0.30838
1124.36583,0.31348
1122.43724,0.31889
1120.50865,0.32448
1118.58007,0.32997
1116.65148,0.33586
1114.72290,0.34207
1112.79431,0.34825
1110.86572,0.35429
1108.93714,0.36020
1107.00855,0.36588
1105.07996,0.37072
1103.15138,0.37445
1101.22279,0.37711
1099.29420,0.37907
1097.36562,0.38089
1095.43703,0.38238
1093.50845,0.38304
1091.57986,0.38290
1089.65127,0.38217
1087.72269,0.38143
1085.79410,0.38082
1083.86551,0.37952
1081.93693,0.37788
1080.00834,0.37639
1078.07976,0.37518
1076.15117,0.37433
1074.22258,0.37308
1072.29400,0.37170
1070.36541,0.37065
1068.43682,0.36994
1066.50824,0.36930
1064.57965,0.36810
1062.65106,0.36697
1060.72248,0.36598
1058.79389,0.36441
1056.86531,0.36230
1054.93672,0.35983
1053.00813,0.35769
1051.07955,0.35645
1049.15096,0.35584
1047.22237,0.35521
1045.29379,0.35515
1043.36520,0.35663
1041.43661,0.35864
1039.50803,0.36023
1037.57944,0.36150
1035.65086,0.36242
1033.72227,0.36301
1031.79368,0.36260
1029.86510,0.36087
1027.93651,0.35876
1026.00792,0.35597
1024.07934,0.35237
1022.15075,0.34919
1020.22217,0.34634
1018.29358,0.34328
1016.36499,0.34019
1014.43641,0.33701
1012.50782,0.33364
1010.57923,0.33032
1008.65065,0.32708
1006.72206,0.32349
1004.79347,0.31930
1002.86489,0.31493
1000.93630,0.31019
999.00772,0.30473
997.07913,0.29923
995.15054,0.29379
993.22196,0.28815
991.29337,0.28251
989.36478,0.27641
987.43620,0.26973
985.50761,0.26282
983.57903,0.25542
981.65044,0.24724
979.72185,0.23822
977.79327,0.22868
975.86468,0.21909
973.93609,0.20925
972.00751,0.19946
970.07892,0.19015
968.15033,0.18099
966.22175,0.17218
964.29316,0.16418
962.36458,0.15697
960.43599,0.15047
958.50740,0.14458
956.57882,0.13947
954.65023,0.13507
952.72164,0.13103
950.79306,0.12736
948.86447,0.12440
946.93589,0.12204
945.00730,0.11994
943.07871,0.11823
941.15013,0.11660
939.22154,0.11491
937.29295,0.11335
935.36437,0.11207
933.43578,0.11085
931.50719,0.10932
929.57861,0.10795
927.65002,0.10666
925.72144,0.10559
923.79285,0.10508
921.86426,0.10467
919.93568,0.10435
918.00709,0.10392
916.07850,0.10338
914.14992,0.10268
912.22133,0.10124
910.29274,0.09861
908.36416,0.09425
906.43557,0.08871
904.50699,0.08288
902.57840,0.07725
900.64981,0.07141
898.72123,0.06514
896.79264,0.05988
894.86405,0.05559
892.93547,0.05134
891.00688,0.04737
889.07830,0.04398
887.14971,0.04097
885.22112,0.03788
883.29254,0.03464
881.36395,0.03118
879.43536,0.02779
877.50678,0.02487
875.57819,0.02203
873.64960,0.01919
871.72102,0.01630
869.79243,0.01348
867.86385,0.01094
865.93526,0.00843
864.00667,0.00629
862.07809,0.00463
860.14950,0.00313
858.22091,0.00184
856.29233,0.00073
854.36374,0.00000
852.43516,-0.00021
850.50657,0.00043
848.57798,0.00155
846.64940,0.00274
844.72081,0.00453
842.79222,0.00699
840.86364,0.01005
838.93505,0.01352
837.00646,0.01724
835.07788,0.02116
833.14929,0.02419
831.22071,0.02658
829.29212,0.02865
827.36353,0.02977
825.43495,0.03045
823.50636,0.03092
821.57777,0.03155
819.64919,0.03279
817.72060,0.03428
815.79201,0.03548
813.86343,0.03695
811.93484,0.04021
810.00626,0.04489
808.07767,0.05088
806.14908,0.05849
804.22050,0.06636
802.29191,0.07263
800.36332,0.07505
798.43474,0.07370
796.50615,0.06977
794.57757,0.06433
792.64898,0.05888
790.72039,0.05413
788.79181,0.05109
786.86322,0.04989
784.93463,0.05055
783.00605,0.05240
781.07746,0.05321
779.14887,0.05187
777.22029,0.04775
775.29170,0.04156
773.36312,0.03504
771.43453,0.02959
769.50594,0.02632
767.57736,0.02447
765.64877,0.02357
763.72018,0.02355
761.79160,0.02320
759.86301,0.02285
757.93443,0.02346
756.00584,0.02396
754.07725,0.02375
752.14867,0.02321
750.22008,0.02224
748.29149,0.02078
746.36291,0.01885
744.43432,0.01679
742.50573,0.01462
740.57715,0.01203
738.64856,0.00936
736.71998,0.00720
734.79139,0.00568
732.86280,0.00462
730.93422,0.00458
729.00563,0.00504
727.07704,0.00483
725.14846,0.00472
723.21987,0.00463
721.29129,0.00433
719.36270,0.00359
717.43411,0.00177
715.50553,0.00016
713.57694,-0.00012
711.64835,0.00072
709.71977,0.00163
707.79118,0.00233
705.86259,0.00372
703.93401,0.00591
702.00542,0.00904
700.07684,0.01331
698.14825,0.01836
696.21966,0.02205
694.29108,0.02175
692.36249,0.01826
690.43390,0.01411
688.50532,0.01122
686.57673,0.00950
684.64814,0.00787
682.71956,0.00650
680.79097,0.00532
678.86239,0.00451
676.93380,0.00390
675.00521,0.00297
673.07663,0.00255
671.14804,0.00214
669.21945,0.00084
667.29087,0.00000
665.36228,-0.00021
663.43370,-0.00074
661.50511,-0.00111
659.57652,-0.00115
657.64794,-0.00152
655.71935,-0.00136
653.79076,-0.00014
651.86218,0.00089
649.93359,0.00136
648.00500,0.00139
646.07642,0.00113
644.14783,0.00125
642.21925,0.00142
640.29066,0.00204
638.36207,0.00304
636.43349,0.00343
634.50490,0.00379
632.57631,0.00421
630.64773,0.00496
628.71914,0.00619
626.79056,0.00671
624.86197,0.00618
622.93338,0.00612
621.00480,0.00792
619.07621,0.00971
617.14762,0.01040
615.21904,0.01033
613.29045,0.01011
611.36186,0.01161
609.43328,0.01336
607.50469,0.01373
605.57611,0.01340
603.64752,0.01461
601.71893,0.01851
599.79035,0.02113
597.86176,0.02239
595.93317,0.02554
594.00459,0.02884
592.07600,0.03071
590.14742,0.03225
588.21883,0.03507
586.29024,0.03968
584.36166,0.04445
582.43307,0.04848
580.50448,0.05195
578.57590,0.05495
576.64731,0.05860
574.71872,0.06353
572.79014,0.06928
570.86155,0.07377
568.93297,0.07750
567.00438,0.08261
565.07579,0.08751
563.14721,0.09347
561.21862,0.09946
559.29003,0.10359
557.36145,0.10903
555.43286,0.11416
553.50427,0.11801
551.57569,0.12155
549.64710,0.12474
547.71852,0.12897
545.78993,0.13387
543.86134,0.13844
541.93276,0.14391
540.00417,0.15224
538.07558,0.15933
536.14700,0.16173
534.21841,0.16206
532.28983,0.16303
530.36124,0.16565
528.43265,0.16737
526.50407,0.16690
524.57548,0.16572
522.64689,0.16443
520.71831,0.16044
518.78972,0.15416
516.86113,0.15043
514.93255,0.14795
513.00396,0.14403
511.07538,0.13745
509.14679,0.13100
507.21820,0.12901
505.28962,0.12917
503.36103,0.13046
501.43244,0.13229
499.50386,0.13429
497.57527,0.13908
495.64669,0.14654
493.71810,0.15766
491.78951,0.16981
489.86093,0.17807
487.93234,0.18739
486.00375,0.19953
484.07517,0.21234
482.14658,0.22569
480.21799,0.23580
478.28941,0.24481
476.36082,0.25292
474.43224,0.25675
472.50365,0.25602
470.57506,0.25119
468.64648,0.24776
466.71789,0.24244
464.78930,0.23001
462.86072,0.21597
460.93213,0.20489
459.00355,0.19178
457.07496,0.17663
455.14637,0.16353
453.21779,0.15225
451.28920,0.14442
449.36061,0.13426
447.43203,0.12436
445.50344,0.11834
443.57485,0.11369
441.64627,0.10929
439.71768,0.10111
437.78910,0.09785
435.86051,0.09915
433.93192,0.09610
432.00334,0.09322
430.07475,0.09164
428.14616,0.08794
426.21758,0.08547
424.28899,0.08015
422.36040,0.06872
420.43182,0.06377
418.50323,0.05622
416.57465,0.04949
414.64606,0.04912
412.71747,0.04037
410.78889,0.03130
408.86030,0.01864
406.93171,0.00441
405.00313,0.00000
403.07454,0.00476
401.14596,0.01041
399.21737,0.00000
