3747.24323,0.00062
3745.31464,0.00309
3743.38605,0.00028
3741.45747,0.00000
3739.52888,0.00314
3737.60030,0.00445
3735.67171,0.00424
3733.74312,0.00391
3731.81454,0.00421
3729.88595,0.00460
3727.95736,0.00634
3726.02878,0.00757
3724.10019,0.00806
3722.17161,0.00991
3720.24302,0.01141
3718.31443,0.01377
3716.38585,0.01642
3714.45726,0.02013
3712.52867,0.02401
3710.60009,0.02571
3708.67150,0.02912
3706.74291,0.03322
3704.81433,0.03784
3702.88574,0.04217
3700.95716,0.04451
3699.02857,0.04691
3697.09998,0.04835
3695.17140,0.04918
3693.24281,0.04955
3691.31422,0.05078
3689.38564,0.05160
3687.45705,0.05085
3685.52846,0.05291
3683.59988,0.05678
3681.67129,0.06064
3679.74271,0.06428
3677.81412,0.06973
3675.88553,0.07425
3673.95695,0.07678
3672.02836,0.08337
3670.09977,0.08878
3668.17119,0.09245
3666.24260,0.09860
3664.31402,0.10454
3662.38543,0.11028
3660.45684,0.11547
3658.52826,0.12094
3656.59967,0.12558
3654.67108,0.12889
3652.74250,0.13426
3650.81391,0.13901
3648.88532,0.14128
3646.95674,0.14344
3645.02815,0.14720
3643.09957,0.15152
3641.17098,0.15512
3639.24239,0.15858
3637.31381,0.16198
3635.38522,0.16563
3633.45663,0.16909
3631.52805,0.17354
3629.59946,0.17691
3627.67088,0.17654
3625.74229,0.17800
3623.81370,0.18043
3621.88512,0.18162
3619.95653,0.18121
3618.02794,0.17799
3616.09936,0.17580
3614.17077,0.17432
3612.24218,0.17212
3610.31360,0.17030
3608.38501,0.16806
3606.45643,0.16587
3604.52784,0.16456
3602.59925,0.16338
3600.67067,0.16180
3598.74208,0.16044
3596.81349,0.15952
3594.88491,0.15844
3592.95632,0.15717
3591.02774,0.15668
3589.09915,0.15644
3587.17056,0.15510
3585.24198,0.15411
3583.31339,0.15439
3581.38480,0.15479
3579.45622,0.15486
3577.52763,0.15496
3575.59904,0.15534
3573.67046,0.15580
3571.74187,0.15656
3569.81329,0.15768
3567.88470,0.15804
3565.95611,0.15781
3564.02753,0.15845
3562.09894,0.15952
3560.17035,0.16026
3558.24177,0.16102
3556.31318,0.16196
3554.38459,0.16301
3552.45601,0.16369
3550.52742,0.16440
3548.59884,0.16561
3546.67025,0.16649
3544.74166,0.16690
3542.81308,0.16758
3540.88449,0.16877
3538.95590,0.16996
3537.02732,0.17079
3535.09873,0.17152
3533.17015,0.17236
3531.24156,0.17335
3529.31297,0.17421
3527.38439,0.17508
3525.45580,0.17603
3523.52721,0.17679
3521.59863,0.17756
3519.67004,0.17850
3517.74145,0.17948
3515.81287,0.18041
3513.88428,0.18139
3511.95570,0.18241
3510.02711,0.18348
3508.09852,0.18438
3506.16994,0.18513
3504.24135,0.18609
3502.31276,0.18695
3500.38418,0.18784
3498.45559,0.18889
3496.52701,0.18989
3494.59842,0.19064
3492.66983,0.19138
3490.74125,0.19243
3488.81266,0.19337
3486.88407,0.19423
3484.95549,0.19507
3483.02690,0.19572
3481.09831,0.19637
3479.16973,0.19709
3477.24114,0.19796
3475.31256,0.19884
3473.38397,0.19978
3471.45538,0.20053
3469.52680,0.20116
3467.59821,0.20206
3465.66962,0.20282
3463.74104,0.20353
3461.81245,0.20424
3459.88386,0.20494
3457.95528,0.20560
3456.02669,0.20623
3454.09811,0.20704
3452.16952,0.20775
3450.24093,0.20849
3448.31235,0.20932
3446.38376,0.21000
3444.45517,0.21048
3442.52659,0.21096
3440.59800,0.21159
3438.66942,0.21231
3436.74083,0.21300
3434.81224,0.21341
3432.88366,0.21395
3430.95507,0.21459
3429.02648,0.21499
3427.09790,0.21543
3425.16931,0.21590
3423.24072,0.21660
3421.31214,0.21722
3419.38355,0.21754
3417.45497,0.21796
3415.52638,0.21838
3413.59779,0.21883
3411.66921,0.21914
3409.74062,0.21936
3407.81203,0.21976
3405.88345,0.22003
3403.95486,0.22020
3402.02628,0.22045
3400.09769,0.22079
3398.16910,0.22121
3396.24052,0.22162
3394.31193,0.22200
3392.38334,0.22212
3390.45476,0.22220
3388.52617,0.22243
3386.59758,0.22259
3384.66900,0.22289
3382.74041,0.22309
3380.81183,0.22310
3378.88324,0.22340
3376.95465,0.22379
3375.02607,0.22409
3373.09748,0.22423
3371.16889,0.22428
3369.24031,0.22445
3367.31172,0.22472
3365.38314,0.22488
3363.45455,0.22486
3361.52596,0.22502
3359.59738,0.22531
3357.66879,0.22558
3355.74020,0.22574
3353.81162,0.22564
3351.88303,0.22564
3349.95444,0.22581
3348.02586,0.22598
3346.09727,0.22605
3344.16869,0.22612
3342.24010,0.22613
3340.31151,0.22617
3338.38293,0.22649
3336.45434,0.22650
3334.52575,0.22618
3332.59717,0.22615
3330.66858,0.22627
3328.73999,0.22638
3326.81141,0.22627
3324.88282,0.22606
3322.95424,0.22615
3321.02565,0.22619
3319.09706,0.22597
3317.16848,0.22579
3315.23989,0.22570
3313.31130,0.22563
3311.38272,0.22556
3309.45413,0.22543
3307.52555,0.22521
3305.59696,0.22509
3303.66837,0.22502
3301.73979,0.22472
3299.81120,0.22438
3297.88261,0.22418
3295.95403,0.22408
3294.02544,0.22400
3292.09685,0.22369
3290.16827,0.22322
3288.23968,0.22277
3286.31110,0.22235
3284.38251,0.22195
3282.45392,0.22147
3280.52534,0.22087
3278.59675,0.22029
3276.66816,0.21968
3274.73958,0.21897
3272.81099,0.21834
3270.88241,0.21769
3268.95382,0.21692
3267.02523,0.21607
3265.09665,0.21519
3263.16806,0.21439
3261.23947,0.21345
3259.31089,0.21248
3257.38230,0.21154
3255.45371,0.21049
3253.52513,0.20960
3251.59654,0.20871
3249.66796,0.20774
3247.73937,0.20693
3245.81078,0.20609
3243.88220,0.20508
3241.95361,0.20419
3240.02502,0.20335
3238.09644,0.20238
3236.16785,0.20144
3234.23927,0.20059
3232.31068,0.19997
3230.38209,0.19934
3228.45351,0.19851
3226.52492,0.19771
3224.59633,0.19690
3222.66775,0.19605
3220.73916,0.19520
3218.81057,0.19444
3216.88199,0.19369
3214.95340,0.19283
3213.02482,0.19202
3211.09623,0.19124
3209.16764,0.19049
3207.23906,0.18964
3205.31047,0.18879
3203.38188,0.18810
3201.45330,0.18734
3199.52471,0.18654
3197.59612,0.18566
3195.66754,0.18476
3193.73895,0.18396
3191.81037,0.18304
3189.88178,0.18213
3187.95319,0.18128
3186.02461,0.18039
3184.09602,0.17950
3182.16743,0.17870
3180.23885,0.17789
3178.31026,0.17695
3176.38168,0.17598
3174.45309,0.17500
3172.52450,0.17410
3170.59592,0.17329
3168.66733,0.17246
3166.73874,0.17167
3164.81016,0.17070
3162.88157,0.16976
3160.95298,0.16903
3159.02440,0.16823
3157.09581,0.16744
3155.16723,0.16673
3153.23864,0.16592
3151.31005,0.16505
3149.38147,0.16420
3147.45288,0.16342
3145.52429,0.16266
3143.59571,0.16192
3141.66712,0.16118
3139.73854,0.16068
3137.80995,0.16028
3135.88136,0.15959
3133.95278,0.15890
3132.02419,0.15833
3130.09560,0.15765
3128.16702,0.15692
3126.23843,0.15640
3124.30984,0.15607
3122.38126,0.15554
3120.45267,0.15485
3118.52409,0.15427
3116.59550,0.15386
3114.66691,0.15354
3112.73833,0.15308
3110.80974,0.15255
3108.88115,0.15204
3106.95257,0.15156
3105.02398,0.15120
3103.09540,0.15077
3101.16681,0.15021
3099.23822,0.14975
3097.30964,0.14943
3095.38105,0.14913
3093.45246,0.14881
3091.52388,0.14844
3089.59529,0.14795
3087.66670,0.14742
3085.73812,0.14699
3083.80953,0.14661
3081.88095,0.14611
3079.95236,0.14551
3078.02377,0.14505
3076.09519,0.14464
3074.16660,0.14416
3072.23801,0.14361
3070.30943,0.14291
3068.38084,0.14228
3066.45225,0.14178
3064.52367,0.14129
3062.59508,0.14066
3060.66650,0.13991
3058.73791,0.13931
3056.80932,0.13868
3054.88074,0.13800
3052.95215,0.13740
3051.02356,0.13671
3049.09498,0.13591
3047.16639,0.13519
3045.23781,0.13459
3043.30922,0.13389
3041.38063,0.13328
3039.45205,0.13278
3037.52346,0.13228
3035.59487,0.13186
3033.66629,0.13141
3031.73770,0.13086
3029.80911,0.13031
3027.88053,0.12991
3025.95194,0.12949
3024.02336,0.12896
3022.09477,0.12858
3020.16618,0.12838
3018.23760,0.12823
3016.30901,0.12799
3014.38042,0.12781
3012.45184,0.12779
3010.52325,0.12784
3008.59467,0.12801
3006.66608,0.12824
3004.73749,0.12850
3002.80891,0.12882
3000.88032,0.12926
2998.95173,0.12991
2997.02315,0.13056
2995.09456,0.13128
2993.16597,0.13213
2991.23739,0.13315
2989.30880,0.13437
2987.38022,0.13570
2985.45163,0.13718
2983.52304,0.13878
2981.59446,0.14049
2979.66587,0.14227
2977.73728,0.14412
2975.80870,0.14606
2973.88011,0.14800
2971.95153,0.15008
2970.02294,0.15225
2968.09435,0.15461
2966.16577,0.15710
2964.23718,0.15939
2962.30859,0.16162
2960.38001,0.16379
2958.45142,0.16605
2956.52283,0.16835
2954.59425,0.17035
2952.66566,0.17235
2950.73708,0.17444
2948.80849,0.17666
2946.87990,0.17945
2944.95132,0.18298
2943.02273,0.18704
2941.09414,0.19146
2939.16556,0.19624
2937.23697,0.20133
2935.30838,0.20660
2933.37980,0.21155
2931.45121,0.21614
2929.52263,0.22050
2927.59404,0.22426
2925.66545,0.22717
2923.73687,0.22900
2921.80828,0.22943
2919.87969,0.22801
2917.95111,0.22415
2916.02252,0.21715
2914.09394,0.20768
2912.16535,0.19828
2910.23676,0.19071
2908.30818,0.18482
2906.37959,0.17997
2904.45100,0.17589
2902.52242,0.17240
2900.59383,0.16919
2898.66524,0.16625
2896.73666,0.16348
2894.80807,0.16071
2892.87949,0.15808
2890.95090,0.15554
2889.02231,0.15297
2887.09373,0.15061
2885.16514,0.14867
2883.23655,0.14704
2881.30797,0.14560
2879.37938,0.14454
2877.45080,0.14408
2875.52221,0.14398
2873.59362,0.14401
2871.66504,0.14426
2869.73645,0.14476
2867.80786,0.14541
2865.87928,0.14644
2863.95069,0.14862
2862.02210,0.15224
2860.09352,0.15709
2858.16493,0.16285
2856.23635,0.16893
2854.30776,0.17422
2852.37917,0.17700
2850.45059,0.17512
2848.52200,0.16743
2846.59341,0.15590
2844.66483,0.14399
2842.73624,0.13372
2840.80766,0.12540
2838.87907,0.11874
2836.95048,0.11341
2835.02190,0.10912
2833.09331,0.10568
2831.16472,0.10279
2829.23614,0.10026
2827.30755,0.09806
2825.37896,0.09599
2823.45038,0.09419
2821.52179,0.09268
2819.59321,0.09113
2817.66462,0.08976
2815.73603,0.08863
2813.80745,0.08743
2811.87886,0.08622
2809.95027,0.08515
2808.02169,0.08404
2806.09310,0.08300
2804.16451,0.08212
2802.23593,0.08124
2800.30734,0.08043
2798.37876,0.07955
2796.45017,0.07864
2794.52158,0.07793
2792.59300,0.07723
2790.66441,0.07650
2788.73582,0.07583
2786.80724,0.07518
2784.87865,0.07451
2782.95007,0.07386
2781.02148,0.07326
2779.09289,0.07264
2777.16431,0.07204
2775.23572,0.07147
2773.30713,0.07089
2771.37855,0.07042
2769.44996,0.06994
2767.52137,0.06949
2765.59279,0.06910
2763.66420,0.06867
2761.73562,0.06819
2759.80703,0.06774
2757.87844,0.06736
2755.94986,0.06704
2754.02127,0.06674
2752.09268,0.06636
2750.16410,0.06589
2748.23551,0.06552
2746.30693,0.06521
2744.37834,0.06487
2742.44975,0.06455
2740.52117,0.06420
2738.59258,0.06383
2736.66399,0.06352
2734.73541,0.06320
2732.80682,0.06277
2730.87823,0.06233
2728.94965,0.06195
2727.02106,0.06154
2725.09248,0.06118
2723.16389,0.06081
2721.23530,0.06035
2719.30672,0.05998
2717.37813,0.05966
2715.44954,0.05928
2713.52096,0.05883
2711.59237,0.05838
2709.66379,0.05795
2707.73520,0.05755
2705.80661,0.05720
2703.87803,0.05683
2701.94944,0.05644
2700.02085,0.05607
2698.09227,0.05576
2696.16368,0.05550
2694.23509,0.05518
2692.30651,0.05484
2690.37792,0.05453
2688.44934,0.05424
2686.52075,0.05393
2684.59216,0.05366
2682.66358,0.05343
2680.73499,0.05313
2678.80640,0.05278
2676.87782,0.05248
2674.94923,0.05214
2673.02064,0.05177
2671.09206,0.05148
2669.16347,0.05119
2667.23489,0.05082
2665.30630,0.05043
2663.37771,0.05013
2661.44913,0.04992
2659.52054,0.04963
2657.59195,0.04927
2655.66337,0.04893
2653.73478,0.04862
2651.80620,0.04831
2649.87761,0.04794
2647.94902,0.04762
2646.02044,0.04735
2644.09185,0.04706
2642.16326,0.04676
2640.23468,0.04639
2638.30609,0.04604
2636.37750,0.04586
2634.44892,0.04573
2632.52033,0.04538
2630.59175,0.04489
2628.66316,0.04455
2626.73457,0.04429
2624.80599,0.04403
2622.87740,0.04371
2620.94881,0.04335
2619.02023,0.04307
2617.09164,0.04278
2615.16306,0.04240
2613.23447,0.04209
2611.30588,0.04185
2609.37730,0.04154
2607.44871,0.04118
2605.52012,0.04090
2603.59154,0.04058
2601.66295,0.04022
2599.73436,0.03990
2597.80578,0.03959
2595.87719,0.03928
2593.94861,0.03896
2592.02002,0.03860
2590.09143,0.03830
2588.16285,0.03804
2586.23426,0.03770
2584.30567,0.03735
2582.37709,0.03706
2580.44850,0.03682
2578.51991,0.03653
2576.59133,0.03620
2574.66274,0.03593
2572.73416,0.03568
2570.80557,0.03539
2568.87698,0.03517
2566.94840,0.03493
2565.01981,0.03460
2563.09122,0.03431
2561.16264,0.03399
2559.23405,0.03368
2557.30547,0.03353
2555.37688,0.03331
2553.44829,0.03294
2551.51971,0.03266
2549.59112,0.03251
2547.66253,0.03237
2545.73395,0.03215
2543.80536,0.03185
2541.87677,0.03157
2539.94819,0.03132
2538.01960,0.03106
2536.09102,0.03086
2534.16243,0.03077
2532.23384,0.03063
2530.30526,0.03036
2528.37667,0.03002
2526.44808,0.02973
2524.51950,0.02955
2522.59091,0.02932
2520.66233,0.02904
2518.73374,0.02876
2516.80515,0.02853
2514.87657,0.02834
2512.94798,0.02813
2511.01939,0.02785
2509.09081,0.02748
2507.16222,0.02706
2505.23363,0.02671
2503.30505,0.02649
2501.37646,0.02629
2499.44788,0.02603
2497.51929,0.02577
2495.59070,0.02548
2493.66212,0.02521
2491.73353,0.02504
2489.80494,0.02482
2487.87636,0.02447
2485.94777,0.02413
2484.01919,0.02390
2482.09060,0.02363
2480.16201,0.02332
2478.23343,0.02307
2476.30484,0.02287
2474.37625,0.02262
2472.44767,0.02232
2470.51908,0.02206
2468.59049,0.02174
2466.66191,0.02142
2464.73332,0.02120
2462.80474,0.02095
2460.87615,0.02067
2458.94756,0.02034
2457.01898,0.02005
2455.09039,0.01977
2453.16180,0.01952
2451.23322,0.01926
2449.30463,0.01896
2447.37604,0.01874
2445.44746,0.01852
2443.51887,0.01829
2441.59029,0.01806
2439.66170,0.01778
2437.73311,0.01750
2435.80453,0.01724
2433.87594,0.01696
2431.94735,0.01665
2430.01877,0.01635
2428.09018,0.01605
2426.16160,0.01583
2424.23301,0.01571
2422.30442,0.01546
2420.37584,0.01523
2418.44725,0.01508
2416.51866,0.01484
2414.59008,0.01451
2412.66149,0.01420
2410.73290,0.01402
2408.80432,0.01391
2406.87573,0.01372
2404.94715,0.01343
2403.01856,0.01319
2401.08997,0.01300
2399.16139,0.01278
2397.23280,0.01258
2395.30421,0.01231
2393.37563,0.01200
2391.44704,0.01181
2389.51846,0.01169
2387.58987,0.01153
2385.66128,0.01140
2383.73270,0.01129
2381.80411,0.01108
2379.87552,0.01085
2377.94694,0.01075
2376.01835,0.01077
2374.08976,0.01074
2372.16118,0.01060
2370.23259,0.01043
2368.30401,0.01019
2366.37542,0.00993
2364.44683,0.00963
2362.51825,0.00932
2360.58966,0.00904
2358.66107,0.00869
2356.73249,0.00833
2354.80390,0.00794
2352.87532,0.00753
2350.94673,0.00738
2349.01814,0.00784
2347.08956,0.00842
2345.16097,0.00838
2343.23238,0.00810
2341.30380,0.00793
2339.37521,0.00769
2337.44662,0.00748
2335.51804,0.00725
2333.58945,0.00699
2331.66087,0.00667
2329.73228,0.00635
2327.80369,0.00620
2325.87511,0.00616
2323.94652,0.00607
2322.01793,0.00585
2320.08935,0.00564
2318.16076,0.00549
2316.23217,0.00531
2314.30359,0.00516
2312.37500,0.00504
2310.44642,0.00488
2308.51783,0.00475
2306.58924,0.00467
2304.66066,0.00456
2302.73207,0.00438
2300.80348,0.00423
2298.87490,0.00415
2296.94631,0.00401
2295.01773,0.00386
2293.08914,0.00375
2291.16055,0.00358
2289.23197,0.00346
2287.30338,0.00334
2285.37479,0.00319
2283.44621,0.00312
2281.51762,0.00308
2279.58903,0.00301
2277.66045,0.00294
2275.73186,0.00281
2273.80328,0.00265
2271.87469,0.00259
2269.94610,0.00255
2268.01752,0.00240
2266.08893,0.00232
2264.16034,0.00227
2262.23176,0.00218
2260.30317,0.00208
2258.37459,0.00198
2256.44600,0.00197
2254.51741,0.00196
2252.58883,0.00184
2250.66024,0.00175
2248.73165,0.00172
2246.80307,0.00168
2244.87448,0.00160
2242.94589,0.00146
2241.01731,0.00138
2239.08872,0.00136
2237.16014,0.00137
2235.23155,0.00135
2233.30296,0.00125
2231.37438,0.00118
2229.44579,0.00119
2227.51720,0.00118
2225.58862,0.00107
2223.66003,0.00096
2221.73145,0.00088
2219.80286,0.00074
2217.87427,0.00066
2215.94569,0.00058
2214.01710,0.00047
2212.08851,0.00036
2210.15993,0.00027
2208.23134,0.00024
2206.30275,0.00017
2204.37417,0.00014
2202.44558,0.00014
2200.51700,0.00008
2198.58841,0.00007
2196.65982,0.00002
2194.73124,0.00000
2192.80265,0.00005
2190.87406,0.00007
2188.94548,0.00013
2187.01689,0.00018
2185.08830,0.00012
2183.15972,0.00009
2181.23113,0.00014
2179.30255,0.00012
2177.37396,0.00009
2175.44537,0.00016
2173.51679,0.00020
2171.58820,0.00010
2169.65961,0.00000
2167.73103,0.00009
2165.80244,0.00025
2163.87386,0.00027
2161.94527,0.00028
2160.01668,0.00025
2158.08810,0.00028
2156.15951,0.00036
2154.23092,0.00034
2152.30234,0.00034
2150.37375,0.00039
2148.44516,0.00043
2146.51658,0.00049
2144.58799,0.00050
2142.65941,0.00044
2140.73082,0.00041
2138.80223,0.00044
2136.87365,0.00050
2134.94506,0.00051
2133.01647,0.00053
2131.08789,0.00049
2129.15930,0.00042
2127.23072,0.00032
2125.30213,0.00019
2123.37354,0.00013
2121.44496,0.00013
2119.51637,0.00012
2117.58778,0.00015
2115.65920,0.00016
2113.73061,0.00013
2111.80202,0.00013
2109.87344,0.00015
2107.94485,0.00015
2106.01627,0.00011
2104.08768,0.00007
2102.15909,0.00005
2100.23051,0.00003
2098.30192,0.00002
2096.37333,0.00005
2094.44475,0.00003
2092.51616,-0.00001
2090.58758,-0.00001
2088.65899,0.00005
2086.73040,0.00009
2084.80182,0.00009
2082.87323,0.00006
2080.94464,0.00000
2079.01606,-0.00009
2077.08747,-0.00018
2075.15888,-0.00024
2073.23030,-0.00024
2071.30171,-0.00026
2069.37313,-0.00030
2067.44454,-0.00032
2065.51595,-0.00036
2063.58737,-0.00046
2061.65878,-0.00050
2059.73019,-0.00046
2057.80161,-0.00038
2055.87302,-0.00028
2053.94443,-0.00023
2052.01585,-0.00023
2050.08726,-0.00027
2048.15868,-0.00016
2046.23009,0.00008
2044.30150,0.00032
2042.37292,0.00049
2040.44433,0.00069
2038.51574,0.00103
2036.58716,0.00134
2034.65857,0.00163
2032.72999,0.00193
2030.80140,0.00215
2028.87281,0.00218
2026.94423,0.00205
2025.01564,0.00202
2023.08705,0.00213
2021.15847,0.00225
2019.22988,0.00236
2017.30129,0.00251
2015.37271,0.00274
2013.44412,0.00303
2011.51554,0.00337
2009.58695,0.00368
2007.65836,0.00394
2005.72978,0.00417
2003.80119,0.00428
2001.87260,0.00432
1999.94402,0.00436
1998.01543,0.00443
1996.08685,0.00446
1994.15826,0.00445
1992.22967,0.00432
1990.30109,0.00409
1988.37250,0.00398
1986.44391,0.00389
1984.51533,0.00375
1982.58674,0.00364
1980.65815,0.00353
1978.72957,0.00341
1976.80098,0.00326
1974.87240,0.00318
1972.94381,0.00305
1971.01522,0.00282
1969.08664,0.00268
1967.15805,0.00245
1965.22946,0.00201
1963.30088,0.00169
1961.37229,0.00146
1959.44371,0.00123
1957.51512,0.00105
1955.58653,0.00091
1953.65795,0.00084
1951.72936,0.00073
1949.80077,0.00066
1947.87219,0.00066
1945.94360,0.00068
1944.01501,0.00062
1942.08643,0.00034
1940.15784,0.00016
1938.22926,0.00016
1936.30067,0.00006
1934.37208,-0.00003
1932.44350,-0.00007
1930.51491,-0.00007
1928.58632,-0.00012
1926.65774,-0.00017
1924.72915,0.00000
1922.80056,0.00004
1920.87198,0.00022
1918.94339,0.00046
1917.01481,0.00043
1915.08622,0.00079
1913.15763,0.00150
1911.22905,0.00215
1909.30046,0.00274
1907.37187,0.00333
1905.44329,0.00415
1903.51470,0.00498
1901.58612,0.00566
1899.65753,0.00633
1897.72894,0.00705
1895.80036,0.00781
1893.87177,0.00838
1891.94318,0.00908
1890.01460,0.00966
1888.08601,0.00988
1886.15742,0.01028
1884.22884,0.01063
1882.30025,0.01091
1880.37167,0.01116
1878.44308,0.01130
1876.51449,0.01150
1874.58591,0.01159
1872.65732,0.01177
1870.72873,0.01195
1868.80015,0.01166
1866.87156,0.01109
1864.94298,0.01063
1863.01439,0.01007
1861.08580,0.00926
1859.15722,0.00833
1857.22863,0.00718
1855.30004,0.00607
1853.37146,0.00492
1851.44287,0.00387
1849.51428,0.00296
1847.58570,0.00227
1845.65711,0.00188
1843.72853,0.00079
1841.79994,0.00000
1839.87135,-0.00012
1837.94277,-0.00045
1836.01418,-0.00075
1834.08559,-0.00093
1832.15701,-0.00071
1830.22842,-0.00075
1828.29984,-0.00093
1826.37125,-0.00050
1824.44266,-0.00033
1822.51408,-0.00014
1820.58549,0.00033
1818.65690,0.00075
1816.72832,0.00123
1814.79973,0.00183
1812.87114,0.00263
1810.94256,0.00332
1809.01397,0.00403
1807.08539,0.00498
1805.15680,0.00611
1803.22821,0.00739
1801.29963,0.00861
1799.37104,0.00978
1797.44245,0.01105
1795.51387,0.01278
1793.58528,0.01455
1791.65669,0.01559
1789.72811,0.01683
1787.79952,0.01896
1785.87094,0.02084
1783.94235,0.02235
1782.01376,0.02409
1780.08518,0.02585
1778.15659,0.02761
1776.22800,0.02945
1774.29942,0.03147
1772.37083,0.03265
1770.44225,0.03355
1768.51366,0.03530
1766.58507,0.03665
1764.65649,0.03854
1762.72790,0.04065
1760.79931,0.04203
1758.87073,0.04431
1756.94214,0.04666
1755.01355,0.04899
1753.08497,0.05211
1751.15638,0.05505
1749.22780,0.05783
1747.29921,0.06133
1745.37062,0.06530
1743.44204,0.06936
1741.51345,0.07360
1739.58486,0.07741
1737.65628,0.08134
1735.72769,0.08583
1733.79911,0.08843
1731.87052,0.09049
1729.94193,0.09398
1728.01335,0.09695
1726.08476,0.09999
1724.15617,0.10316
1722.22759,0.10625
1720.29900,0.11014
1718.37041,0.11325
1716.44183,0.11528
1714.51324,0.11774
1712.58466,0.12075
1710.65607,0.12348
1708.72748,0.12598
1706.79890,0.12855
1704.87031,0.13065
1702.94172,0.13388
1701.01314,0.13700
1699.08455,0.13870
1697.15596,0.14210
1695.22738,0.14473
1693.29879,0.14718
1691.37021,0.15123
1689.44162,0.15409
1687.51303,0.15760
1685.58445,0.16114
1683.65586,0.16258
1681.72727,0.16531
1679.79869,0.16864
1677.87010,0.17189
1675.94152,0.17468
1674.01293,0.17653
1672.08434,0.17913
1670.15576,0.18142
1668.22717,0.18268
1666.29858,0.18442
1664.37000,0.18658
1662.44141,0.18757
1660.51282,0.18822
1658.58424,0.18915
1656.65565,0.19037
1654.72707,0.19188
1652.79848,0.18959
1650.86989,0.18767
1648.94131,0.18924
1647.01272,0.18917
1645.08413,0.18772
1643.15555,0.18742
1641.22696,0.18766
1639.29838,0.18797
1637.36979,0.18858
1635.44120,0.18779
1633.51262,0.18649
1631.58403,0.18666
1629.65544,0.18609
1627.72686,0.18474
1625.79827,0.18311
1623.86968,0.18111
1621.94110,0.17863
1620.01251,0.17674
1618.08393,0.17530
1616.15534,0.17181
1614.22675,0.16931
1612.29817,0.16807
1610.36958,0.16618
1608.44099,0.16423
1606.51241,0.16225
1604.58382,0.16048
1602.65524,0.15848
1600.72665,0.15654
1598.79806,0.15457
1596.86948,0.15250
1594.94089,0.15052
1593.01230,0.14846
1591.08372,0.14654
1589.15513,0.14456
1587.22654,0.14276
1585.29796,0.14071
1583.36937,0.13870
1581.44079,0.13680
1579.51220,0.13539
1577.58361,0.13433
1575.65503,0.13160
1573.72644,0.12981
1571.79785,0.12989
1569.86927,0.12918
1567.94068,0.12823
1566.01209,0.12823
1564.08351,0.12830
1562.15492,0.12922
1560.22634,0.13002
1558.29775,0.12810
1556.36916,0.12791
1554.44058,0.12895
1552.51199,0.12908
1550.58340,0.12952
1548.65482,0.12936
1546.72623,0.12960
1544.79765,0.12967
1542.86906,0.12939
1540.94047,0.12922
1539.01189,0.12690
1537.08330,0.12599
1535.15471,0.12624
1533.22613,0.12503
1531.29754,0.12368
1529.36895,0.12291
1527.44037,0.12181
1525.51178,0.12019
1523.58320,0.11960
1521.65461,0.11853
1519.72602,0.11700
1517.79744,0.11673
1515.86885,0.11553
1513.94026,0.11355
1512.01168,0.11088
1510.08309,0.10790
1508.15451,0.10537
1506.22592,0.10043
1504.29733,0.09552
1502.36875,0.09285
1500.44016,0.08986
1498.51157,0.08653
1496.58299,0.08279
1494.65440,0.07924
1492.72581,0.07715
1490.79723,0.07497
1488.86864,0.07258
1486.94006,0.07107
1485.01147,0.07025
1483.08288,0.07014
1481.15430,0.07035
1479.22571,0.07132
1477.29712,0.07342
1475.36854,0.07654
1473.43995,0.08092
1471.51137,0.08602
1469.58278,0.09176
1467.65419,0.09705
1465.72561,0.09985
1463.79702,0.10073
1461.86843,0.10141
1459.93985,0.10282
1458.01126,0.10391
1456.08267,0.10344
1454.15409,0.10348
1452.22550,0.10395
1450.29692,0.10385
1448.36833,0.10362
1446.43974,0.10322
1444.51116,0.10308
1442.58257,0.10298
1440.65398,0.10295
1438.72540,0.10336
1436.79681,0.10283
1434.86822,0.10200
1432.93964,0.10230
1431.01105,0.10249
1429.08247,0.10208
1427.15388,0.10189
1425.22529,0.10205
1423.29671,0.10225
1421.36812,0.10280
1419.43953,0.10284
1417.51095,0.10222
1415.58236,0.10239
1413.65378,0.10235
1411.72519,0.10194
1409.79660,0.10163
1407.86802,0.10115
1405.93943,0.10068
1404.01084,0.09961
1402.08226,0.09873
1400.15367,0.09788
1398.22508,0.09651
1396.29650,0.09527
1394.36791,0.09364
1392.43933,0.09204
1390.51074,0.09103
1388.58215,0.08946
1386.65357,0.08607
1384.72498,0.08327
1382.79639,0.08448
1380.86781,0.08790
1378.93922,0.09011
1377.01064,0.09066
1375.08205,0.09042
1373.15346,0.08964
1371.22488,0.08856
1369.29629,0.08740
1367.36770,0.08600
1365.43912,0.08476
1363.51053,0.08331
1361.58194,0.08159
1359.65336,0.08034
1357.72477,0.07954
1355.79619,0.07876
1353.86760,0.07788
1351.93901,0.07731
1350.01043,0.07681
1348.08184,0.07615
1346.15325,0.07551
1344.22467,0.07487
1342.29608,0.07437
1340.36750,0.07385
1338.43891,0.07331
1336.51032,0.07287
1334.58174,0.07247
1332.65315,0.07199
1330.72456,0.07140
1328.79598,0.07089
1326.86739,0.07055
1324.93880,0.07036
1323.01022,0.07008
1321.08163,0.06971
1319.15305,0.06941
1317.22446,0.06911
1315.29587,0.06888
1313.36729,0.06856
1311.43870,0.06830
1309.51011,0.06805
1307.58153,0.06777
1305.65294,0.06767
1303.72435,0.06745
1301.79577,0.06723
1299.86718,0.06721
1297.93860,0.06733
1296.01001,0.06769
1294.08142,0.06827
1292.15284,0.06890
1290.22425,0.06955
1288.29566,0.07053
1286.36708,0.07176
1284.43849,0.07305
1282.50991,0.07450
1280.58132,0.07599
1278.65273,0.07740
1276.72415,0.07893
1274.79556,0.08071
1272.86697,0.08256
1270.93839,0.08443
1269.00980,0.08642
1267.08121,0.08874
1265.15263,0.09128
1263.22404,0.09389
1261.29546,0.09705
1259.36687,0.10075
1257.43828,0.10489
1255.50970,0.10952
1253.58111,0.11450
1251.65252,0.11977
1249.72394,0.12502
1247.79535,0.13020
1245.86677,0.13518
1243.93818,0.13985
1242.00959,0.14425
1240.08101,0.14826
1238.15242,0.15204
1236.22383,0.15535
1234.29525,0.15839
1232.36666,0.16133
1230.43807,0.16390
1228.50949,0.16652
1226.58090,0.16908
1224.65232,0.17145
1222.72373,0.17395
1220.79514,0.17638
1218.86656,0.17901
1216.93797,0.18201
1215.00938,0.18487
1213.08080,0.18769
1211.15221,0.19075
1209.22363,0.19367
1207.29504,0.19636
1205.36645,0.19908
1203.43787,0.20170
1201.50928,0.20418
1199.58069,0.20655
1197.65211,0.20871
1195.72352,0.21071
1193.79493,0.21274
1191.86635,0.21496
1189.93776,0.21720
1188.00918,0.21909
1186.08059,0.22081
1184.15200,0.22284
1182.22342,0.22516
1180.29483,0.22764
1178.36624,0.23032
1176.43766,0.23313
1174.50907,0.23595
1172.58048,0.23902
1170.65190,0.24231
1168.72331,0.24570
1166.79473,0.24941
1164.86614,0.25293
1162.93755,0.25578
1161.00897,0.25793
1159.08038,0.25917
1157.15179,0.25976
1155.22321,0.26039
1153.29462,0.26176
1151.36604,0.26368
1149.43745,0.26574
1147.50886,0.26815
1145.58028,0.27082
1143.65169,0.27391
1141.72310,0.27726
1139.79452,0.28056
1137.86593,0.28416
1135.93734,0.28828
1134.00876,0.29262
1132.08017,0.29656
1130.15159,0.30048
1128.22300,0.30550
1126.29441,0.31131
1124.36583,0.31709
1122.43724,0.32287
1120.50865,0.32866
1118.58007,0.33463
1116.65148,0.34092
1114.72290,0.34722
1112.79431,0.35346
1110.86572,0.35942
1108.93714,0.36541
1107.00855,0.37115
1105.07996,0.37588
1103.15138,0.37986
1101.22279,0.38313
1099.29420,0.38602
1097.36562,0.38826
1095.43703,0.38973
1093.50845,0.39083
1091.57986,0.39147
1089.65127,0.39182
1087.72269,0.39175
1085.79410,0.39144
1083.86551,0.39077
1081.93693,0.39009
1080.00834,0.38981
1078.07976,0.38907
1076.15117,0.38794
1074.22258,0.38693
1072.29400,0.38646
1070.36541,0.38634
1068.43682,0.38687
1066.50824,0.38799
1064.57965,0.38860
1062.65106,0.38885
1060.72248,0.38844
1058.79389,0.38785
1056.86531,0.38699
1054.93672,0.38509
1053.00813,0.38338
1051.07955,0.38274
1049.15096,0.38327
1047.22237,0.38420
1045.29379,0.38563
1043.36520,0.38808
1041.43661,0.39101
1039.50803,0.39397
1037.57944,0.39668
1035.65086,0.39921
1033.72227,0.40065
1031.79368,0.40113
1029.86510,0.40071
1027.93651,0.39883
1026.00792,0.39663
1024.07934,0.39391
1022.15075,0.39092
1020.22217,0.38840
1018.29358,0.38614
1016.36499,0.38374
1014.43641,0.38057
1012.50782,0.37749
1010.57923,0.37470
1008.65065,0.37155
1006.72206,0.36811
1004.79347,0.36431
1002.86489,0.36016
1000.93630,0.35554
999.00772,0.35046
997.07913,0.34503
995.15054,0.33915
993.22196,0.33324
991.29337,0.32730
989.36478,0.32092
987.43620,0.31409
985.50761,0.30663
983.57903,0.29828
981.65044,0.28923
979.72185,0.27946
977.79327,0.26888
975.86468,0.25783
973.93609,0.24671
972.00751,0.23560
970.07892,0.22436
968.15033,0.21345
966.22175,0.20354
964.29316,0.19431
962.36458,0.18552
960.43599,0.17778
958.50740,0.17081
956.57882,0.16419
954.65023,0.15849
952.72164,0.15383
950.79306,0.14990
948.86447,0.14644
946.93589,0.14352
945.00730,0.14108
943.07871,0.13890
941.15013,0.13715
939.22154,0.13538
937.29295,0.13345
935.36437,0.13197
933.43578,0.13080
931.50719,0.12939
929.57861,0.12795
927.65002,0.12692
925.72144,0.12596
923.79285,0.12500
921.86426,0.12455
919.93568,0.12456
918.00709,0.12451
916.07850,0.12431
914.14992,0.12389
912.22133,0.12188
910.29274,0.11834
908.36416,0.11389
906.43557,0.10792
904.50699,0.10110
902.57840,0.09396
900.64981,0.08655
898.72123,0.07955
896.79264,0.07306
894.86405,0.06713
892.93547,0.06183
891.00688,0.05706
889.07830,0.05274
887.14971,0.04873
885.22112,0.04490
883.29254,0.04126
881.36395,0.03752
879.43536,0.03390
877.50678,0.03062
875.57819,0.02698
873.64960,0.02338
871.72102,0.02013
869.79243,0.01665
867.86385,0.01342
865.93526,0.01079
864.00667,0.00803
862.07809,0.00527
860.14950,0.00340
858.22091,0.00189
856.29233,0.00059
854.36374,0.00000
852.43516,-0.00021
850.50657,-0.00017
848.57798,0.00032
846.64940,0.00195
844.72081,0.00419
842.79222,0.00657
840.86364,0.00957
838.93505,0.01316
837.00646,0.01739
835.07788,0.02170
833.14929,0.02539
831.22071,0.02812
829.29212,0.02984
827.36353,0.03075
825.43495,0.03114
823.50636,0.03173
821.57777,0.03248
819.64919,0.03325
817.72060,0.03409
815.79201,0.03550
813.86343,0.03860
811.93484,0.04333
810.00626,0.04947
808.07767,0.05762
806.14908,0.06777
804.22050,0.07743
802.29191,0.08419
800.36332,0.08790
798.43474,0.08754
796.50615,0.08288
794.57757,0.07601
792.64898,0.06904
790.72039,0.06372
788.79181,0.06059
786.86322,0.05919
784.93463,0.06000
783.00605,0.06302
781.07746,0.06522
779.14887,0.06382
777.22029,0.05879
775.29170,0.05118
773.36312,0.04326
771.43453,0.03718
769.50594,0.03328
767.57736,0.03103
765.64877,0.02973
763.72018,0.02928
761.79160,0.02972
759.86301,0.03022
757.93443,0.03071
756.00584,0.03128
754.07725,0.03153
752.14867,0.03101
750.22008,0.02924
748.29149,0.02727
746.36291,0.02524
744.43432,0.02266
742.50573,0.02004
740.57715,0.01689
738.64856,0.01407
736.71998,0.01175
734.79139,0.00890
732.86280,0.00668
730.93422,0.00541
729.00563,0.00485
727.07704,0.00542
725.14846,0.00612
723.21987,0.00592
721.29129,0.00542
719.36270,0.00430
717.43411,0.00183
715.50553,0.00003
713.57694,0.00004
711.64835,0.00066
709.71977,0.00137
707.79118,0.00255
705.86259,0.00463
703.93401,0.00756
702.00542,0.01173
700.07684,0.01739
698.14825,0.02408
696.21966,0.02874
694.29108,0.02737
692.36249,0.02225
690.43390,0.01739
688.50532,0.01344
686.57673,0.01061
684.64814,0.00894
682.71956,0.00800
680.79097,0.00734
678.86239,0.00650
676.93380,0.00555
675.00521,0.00494
673.07663,0.00410
671.14804,0.00327
669.21945,0.00248
667.29087,0.00078
665.36228,0.00000
663.43370,0.00023
661.50511,0.00014
659.57652,-0.00074
657.64794,-0.00140
655.71935,-0.00114
653.79076,-0.00041
651.86218,0.00042
649.93359,0.00121
648.00500,0.00267
646.07642,0.00318
644.14783,0.00191
642.21925,0.00170
640.29066,0.00209
638.36207,0.00213
636.43349,0.00229
634.50490,0.00242
632.57631,0.00257
630.64773,0.00265
628.71914,0.00298
626.79056,0.00353
624.86197,0.00472
622.93338,0.00500
621.00480,0.00383
619.07621,0.00484
617.14762,0.00758
615.21904,0.00865
613.29045,0.00852
611.36186,0.01032
609.43328,0.01370
607.50469,0.01492
605.57611,0.01460
603.64752,0.01542
601.71893,0.01679
599.79035,0.01853
597.86176,0.02118
595.93317,0.02381
594.00459,0.02733
592.07600,0.03116
590.14742,0.03441
588.21883,0.03892
586.29024,0.04334
584.36166,0.04811
582.43307,0.05398
580.50448,0.05845
578.57590,0.06233
576.64731,0.06691
574.71872,0.07198
572.79014,0.07729
570.86155,0.08377
568.93297,0.09033
567.00438,0.09537
565.07579,0.10170
563.14721,0.10828
561.21862,0.11397
559.29003,0.11922
557.36145,0.12296
555.43286,0.12750
553.50427,0.13291
551.57569,0.13833
549.64710,0.14286
547.71852,0.14666
545.78993,0.15334
543.86134,0.16012
541.93276,0.16491
540.00417,0.17117
538.07558,0.17848
536.14700,0.18518
534.21841,0.19157
532.28983,0.19555
530.36124,0.19665
528.43265,0.19822
526.50407,0.19594
524.57548,0.19060
522.64689,0.18918
520.71831,0.18556
518.78972,0.17946
516.86113,0.17417
514.93255,0.16720
513.00396,0.15966
511.07538,0.15244
509.14679,0.14939
507.21820,0.14801
505.28962,0.14389
503.36103,0.14278
501.43244,0.14511
499.50386,0.14822
497.57527,0.15373
495.64669,0.16063
493.71810,0.16845
491.78951,0.17997
489.86093,0.19300
487.93234,0.20537
486.00375,0.21954
484.07517,0.23405
482.14658,0.24572
480.21799,0.25381
478.28941,0.26273
476.36082,0.27225
474.43224,0.27717
472.50365,0.27946
470.57506,0.27958
468.64648,0.27336
466.71789,0.26214
464.78930,0.24954
462.86072,0.23330
460.93213,0.21886
459.00355,0.20478
457.07496,0.18883
455.14637,0.17444
453.21779,0.15823
451.28920,0.14925
449.36061,0.14382
447.43203,0.13415
445.50344,0.12535
443.57485,0.11730
441.64627,0.11374
439.71768,0.11050
437.78910,0.10564
435.86051,0.10642
433.93192,0.10559
432.00334,0.09971
430.07475,0.09709
428.14616,0.09281
426.21758,0.09209
424.28899,0.09497
422.36040,0.08856
420.43182,0.08353
418.50323,0.06965
416.57465,0.05626
414.64606,0.04705
412.71747,0.03190
410.78889,0.03076
408.86030,0.01715
406.93171,0.00000
405.00313,0.00369
403.07454,0.00990
401.14596,0.01006
399.21737,0.00000
