3747.24323,0.00056
3745.31464,0.00255
3743.38605,0.00000
3741.45747,0.00004
3739.52888,0.00287
3737.60030,0.00384
3735.67171,0.00341
3733.74312,0.00287
3731.81454,0.00299
3729.88595,0.00327
3727.95736,0.00481
3726.02878,0.00578
3724.10019,0.00595
3722.17161,0.00714
3720.24302,0.00792
3718.31443,0.00950
3716.38585,0.01128
3714.45726,0.01397
3712.52867,0.01661
3710.60009,0.01738
3708.67150,0.01969
3706.74291,0.02229
3704.81433,0.02552
3702.88574,0.02874
3700.95716,0.03058
3699.02857,0.03260
3697.09998,0.03365
3695.17140,0.03456
3693.24281,0.03533
3691.31422,0.03666
3689.38564,0.03759
3687.45705,0.03717
3685.52846,0.03888
3683.59988,0.04195
3681.67129,0.04505
3679.74271,0.04799
3677.81412,0.05243
3675.88553,0.05581
3673.95695,0.05732
3672.02836,0.06250
3670.09977,0.06648
3668.17119,0.06861
3666.24260,0.07300
3664.31402,0.07755
3662.38543,0.08190
3660.45684,0.08562
3658.52826,0.08977
3656.59967,0.09324
3654.67108,0.09550
3652.74250,0.09974
3650.81391,0.10352
3648.88532,0.10503
3646.95674,0.10657
3645.02815,0.10974
3643.09957,0.11338
3641.17098,0.11628
3639.24239,0.11892
3637.31381,0.12149
3635.38522,0.12453
3633.45663,0.12722
3631.52805,0.13053
3629.59946,0.13322
3627.67088,0.13276
3625.74229,0.13425
3623.81370,0.13674
3621.88512,0.13826
3619.95653,0.13884
3618.02794,0.13718
3616.09936,0.13673
3614.17077,0.13694
3612.24218,0.13622
3610.31360,0.13587
3608.38501,0.13510
3606.45643,0.13455
3604.52784,0.13497
3602.59925,0.13554
3600.67067,0.13547
3598.74208,0.13537
3596.81349,0.13576
3594.88491,0.13578
3592.95632,0.13576
3591.02774,0.13662
3589.09915,0.13771
3587.17056,0.13762
3585.24198,0.13757
3583.31339,0.13875
3581.38480,0.13978
3579.45622,0.14063
3577.52763,0.14163
3575.59904,0.14264
3573.67046,0.14377
3571.74187,0.14501
3569.81329,0.14658
3567.88470,0.14760
3565.95611,0.14798
3564.02753,0.14924
3562.09894,0.15089
3560.17035,0.15209
3558.24177,0.15315
3556.31318,0.15436
3554.38459,0.15593
3552.45601,0.15728
3550.52742,0.15832
3548.59884,0.15973
3546.67025,0.16080
3544.74166,0.16150
3542.81308,0.16266
3540.88449,0.16408
3538.95590,0.16545
3537.02732,0.16659
3535.09873,0.16755
3533.17015,0.16865
3531.24156,0.16989
3529.31297,0.17106
3527.38439,0.17226
3525.45580,0.17349
3523.52721,0.17466
3521.59863,0.17576
3519.67004,0.17684
3517.74145,0.17795
3515.81287,0.17906
3513.88428,0.18028
3511.95570,0.18136
3510.02711,0.18226
3508.09852,0.18335
3506.16994,0.18458
3504.24135,0.18570
3502.31276,0.18636
3500.38418,0.18724
3498.45559,0.18851
3496.52701,0.18947
3494.59842,0.19046
3492.66983,0.19144
3490.74125,0.19235
3488.81266,0.19322
3486.88407,0.19393
3484.95549,0.19493
3483.02690,0.19618
3481.09831,0.19710
3479.16973,0.19782
3477.24114,0.19870
3475.31256,0.19941
3473.38397,0.20014
3471.45538,0.20099
3469.52680,0.20179
3467.59821,0.20256
3465.66962,0.20319
3463.74104,0.20413
3461.81245,0.20498
3459.88386,0.20553
3457.95528,0.20638
3456.02669,0.20713
3454.09811,0.20761
3452.16952,0.20814
3450.24093,0.20890
3448.31235,0.20957
3446.38376,0.21008
3444.45517,0.21066
3442.52659,0.21130
3440.59800,0.21205
3438.66942,0.21266
3436.74083,0.21318
3434.81224,0.21368
3432.88366,0.21416
3430.95507,0.21455
3429.02648,0.21491
3427.09790,0.21535
3425.16931,0.21582
3423.24072,0.21651
3421.31214,0.21698
3419.38355,0.21726
3417.45497,0.21785
3415.52638,0.21841
3413.59779,0.21884
3411.66921,0.21914
3409.74062,0.21940
3407.81203,0.21976
3405.88345,0.22006
3403.95486,0.22020
3402.02628,0.22012
3400.09769,0.22025
3398.16910,0.22070
3396.24052,0.22102
3394.31193,0.22124
3392.38334,0.22144
3390.45476,0.22169
3388.52617,0.22204
3386.59758,0.22221
3384.66900,0.22217
3382.74041,0.22216
3380.81183,0.22226
3378.88324,0.22244
3376.95465,0.22267
3375.02607,0.22280
3373.09748,0.22273
3371.16889,0.22271
3369.24031,0.22280
3367.31172,0.22294
3365.38314,0.22321
3363.45455,0.22330
3361.52596,0.22327
3359.59738,0.22338
3357.66879,0.22355
3355.74020,0.22365
3353.81162,0.22363
3351.88303,0.22365
3349.95444,0.22369
3348.02586,0.22373
3346.09727,0.22364
3344.16869,0.22347
3342.24010,0.22352
3340.31151,0.22349
3338.38293,0.22327
3336.45434,0.22324
3334.52575,0.22330
3332.59717,0.22321
3330.66858,0.22300
3328.73999,0.22283
3326.81141,0.22282
3324.88282,0.22280
3322.95424,0.22269
3321.02565,0.22248
3319.09706,0.22217
3317.16848,0.22199
3315.23989,0.22181
3313.31130,0.22151
3311.38272,0.22133
3309.45413,0.22124
3307.52555,0.22106
3305.59696,0.22083
3303.66837,0.22077
3301.73979,0.22061
3299.81120,0.22034
3297.88261,0.22014
3295.95403,0.21979
3294.02544,0.21933
3292.09685,0.21887
3290.16827,0.21854
3288.23968,0.21824
3286.31110,0.21774
3284.38251,0.21719
3282.45392,0.21679
3280.52534,0.21641
3278.59675,0.21582
3276.66816,0.21517
3274.73958,0.21450
3272.81099,0.21368
3270.88241,0.21298
3268.95382,0.21224
3267.02523,0.21133
3265.09665,0.21043
3263.16806,0.20951
3261.23947,0.20870
3259.31089,0.20797
3257.38230,0.20724
3255.45371,0.20628
3253.52513,0.20515
3251.59654,0.20409
3249.66796,0.20313
3247.73937,0.20238
3245.81078,0.20166
3243.88220,0.20078
3241.95361,0.19982
3240.02502,0.19879
3238.09644,0.19796
3236.16785,0.19733
3234.23927,0.19666
3232.31068,0.19587
3230.38209,0.19508
3228.45351,0.19433
3226.52492,0.19349
3224.59633,0.19270
3222.66775,0.19193
3220.73916,0.19113
3218.81057,0.19029
3216.88199,0.18951
3214.95340,0.18873
3213.02482,0.18790
3211.09623,0.18710
3209.16764,0.18621
3207.23906,0.18545
3205.31047,0.18471
3203.38188,0.18377
3201.45330,0.18307
3199.52471,0.18234
3197.59612,0.18147
3195.66754,0.18061
3193.73895,0.17972
3191.81037,0.17892
3189.88178,0.17811
3187.95319,0.17726
3186.02461,0.17634
3184.09602,0.17544
3182.16743,0.17468
3180.23885,0.17383
3178.31026,0.17294
3176.38168,0.17207
3174.45309,0.17113
3172.52450,0.17019
3170.59592,0.16942
3168.66733,0.16856
3166.73874,0.16770
3164.81016,0.16685
3162.88157,0.16585
3160.95298,0.16500
3159.02440,0.16424
3157.09581,0.16351
3155.16723,0.16278
3153.23864,0.16187
3151.31005,0.16099
3149.38147,0.16028
3147.45288,0.15962
3145.52429,0.15882
3143.59571,0.15814
3141.66712,0.15763
3139.73854,0.15699
3137.80995,0.15622
3135.88136,0.15542
3133.95278,0.15477
3132.02419,0.15422
3130.09560,0.15367
3128.16702,0.15311
3126.23843,0.15243
3124.30984,0.15171
3122.38126,0.15108
3120.45267,0.15057
3118.52409,0.15017
3116.59550,0.14976
3114.66691,0.14934
3112.73833,0.14896
3110.80974,0.14853
3108.88115,0.14797
3106.95257,0.14738
3105.02398,0.14688
3103.09540,0.14649
3101.16681,0.14612
3099.23822,0.14569
3097.30964,0.14520
3095.38105,0.14471
3093.45246,0.14432
3091.52388,0.14390
3089.59529,0.14343
3087.66670,0.14295
3085.73812,0.14246
3083.80953,0.14204
3081.88095,0.14157
3079.95236,0.14103
3078.02377,0.14060
3076.09519,0.14011
3074.16660,0.13954
3072.23801,0.13905
3070.30943,0.13846
3068.38084,0.13780
3066.45225,0.13727
3064.52367,0.13670
3062.59508,0.13599
3060.66650,0.13538
3058.73791,0.13487
3056.80932,0.13411
3054.88074,0.13325
3052.95215,0.13261
3051.02356,0.13191
3049.09498,0.13113
3047.16639,0.13052
3045.23781,0.12996
3043.30922,0.12937
3041.38063,0.12869
3039.45205,0.12808
3037.52346,0.12746
3035.59487,0.12688
3033.66629,0.12654
3031.73770,0.12610
3029.80911,0.12562
3027.88053,0.12531
3025.95194,0.12493
3024.02336,0.12447
3022.09477,0.12408
3020.16618,0.12381
3018.23760,0.12366
3016.30901,0.12354
3014.38042,0.12349
3012.45184,0.12357
3010.52325,0.12370
3008.59467,0.12388
3006.66608,0.12407
3004.73749,0.12437
3002.80891,0.12491
3000.88032,0.12551
2998.95173,0.12608
2997.02315,0.12670
2995.09456,0.12745
2993.16597,0.12836
2991.23739,0.12952
2989.30880,0.13075
2987.38022,0.13194
2985.45163,0.13335
2983.52304,0.13498
2981.59446,0.13683
2979.66587,0.13884
2977.73728,0.14083
2975.80870,0.14288
2973.88011,0.14504
2971.95153,0.14731
2970.02294,0.14965
2968.09435,0.15208
2966.16577,0.15454
2964.23718,0.15691
2962.30859,0.15931
2960.38001,0.16158
2958.45142,0.16362
2956.52283,0.16543
2954.59425,0.16720
2952.66566,0.16915
2950.73708,0.17111
2948.80849,0.17336
2946.87990,0.17623
2944.95132,0.17970
2943.02273,0.18366
2941.09414,0.18805
2939.16556,0.19273
2937.23697,0.19753
2935.30838,0.20258
2933.37980,0.20752
2931.45121,0.21202
2929.52263,0.21606
2927.59404,0.21947
2925.66545,0.22212
2923.73687,0.22355
2921.80828,0.22356
2919.87969,0.22197
2917.95111,0.21778
2916.02252,0.21033
2914.09394,0.20093
2912.16535,0.19201
2910.23676,0.18465
2908.30818,0.17884
2906.37959,0.17417
2904.45100,0.17024
2902.52242,0.16685
2900.59383,0.16380
2898.66524,0.16099
2896.73666,0.15828
2894.80807,0.15567
2892.87949,0.15298
2890.95090,0.15017
2889.02231,0.14781
2887.09373,0.14579
2885.16514,0.14393
2883.23655,0.14244
2881.30797,0.14128
2879.37938,0.14045
2877.45080,0.13995
2875.52221,0.13975
2873.59362,0.13977
2871.66504,0.13986
2869.73645,0.14011
2867.80786,0.14071
2865.87928,0.14178
2863.95069,0.14376
2862.02210,0.14703
2860.09352,0.15162
2858.16493,0.15725
2856.23635,0.16295
2854.30776,0.16727
2852.37917,0.16886
2850.45059,0.16619
2848.52200,0.15846
2846.59341,0.14764
2844.66483,0.13683
2842.73624,0.12736
2840.80766,0.11946
2838.87907,0.11316
2836.95048,0.10805
2835.02190,0.10389
2833.09331,0.10054
2831.16472,0.09770
2829.23614,0.09513
2827.30755,0.09291
2825.37896,0.09095
2823.45038,0.08908
2821.52179,0.08744
2819.59321,0.08600
2817.66462,0.08458
2815.73603,0.08323
2813.80745,0.08210
2811.87886,0.08111
2809.95027,0.08002
2808.02169,0.07887
2806.09310,0.07786
2804.16451,0.07698
2802.23593,0.07603
2800.30734,0.07525
2798.37876,0.07462
2796.45017,0.07383
2794.52158,0.07301
2792.59300,0.07229
2790.66441,0.07166
2788.73582,0.07103
2786.80724,0.07024
2784.87865,0.06946
2782.95007,0.06877
2781.02148,0.06813
2779.09289,0.06761
2777.16431,0.06719
2775.23572,0.06670
2773.30713,0.06615
2771.37855,0.06561
2769.44996,0.06516
2767.52137,0.06478
2765.59279,0.06433
2763.66420,0.06391
2761.73562,0.06352
2759.80703,0.06310
2757.87844,0.06277
2755.94986,0.06241
2754.02127,0.06192
2752.09268,0.06153
2750.16410,0.06126
2748.23551,0.06095
2746.30693,0.06053
2744.37834,0.06017
2742.44975,0.05990
2740.52117,0.05963
2738.59258,0.05942
2736.66399,0.05915
2734.73541,0.05875
2732.80682,0.05829
2730.87823,0.05787
2728.94965,0.05752
2727.02106,0.05725
2725.09248,0.05695
2723.16389,0.05651
2721.23530,0.05603
2719.30672,0.05560
2717.37813,0.05518
2715.44954,0.05478
2713.52096,0.05436
2711.59237,0.05399
2709.66379,0.05365
2707.73520,0.05324
2705.80661,0.05278
2703.87803,0.05235
2701.94944,0.05204
2700.02085,0.05176
2698.09227,0.05144
2696.16368,0.05114
2694.23509,0.05085
2692.30651,0.05056
2690.37792,0.05026
2688.44934,0.04995
2686.52075,0.04965
2684.59216,0.04934
2682.66358,0.04910
2680.73499,0.04888
2678.80640,0.04857
2676.87782,0.04827
2674.94923,0.04802
2673.02064,0.04779
2671.09206,0.04755
2669.16347,0.04723
2667.23489,0.04682
2665.30630,0.04641
2663.37771,0.04611
2661.44913,0.04581
2659.52054,0.04551
2657.59195,0.04521
2655.66337,0.04488
2653.73478,0.04458
2651.80620,0.04426
2649.87761,0.04399
2647.94902,0.04379
2646.02044,0.04348
2644.09185,0.04308
2642.16326,0.04280
2640.23468,0.04260
2638.30609,0.04234
2636.37750,0.04216
2634.44892,0.04196
2632.52033,0.04165
2630.59175,0.04131
2628.66316,0.04100
2626.73457,0.04078
2624.80599,0.04053
2622.87740,0.04020
2620.94881,0.03981
2619.02023,0.03945
2617.09164,0.03922
2615.16306,0.03899
2613.23447,0.03868
2611.30588,0.03837
2609.37730,0.03815
2607.44871,0.03788
2605.52012,0.03747
2603.59154,0.03710
2601.66295,0.03676
2599.73436,0.03647
2597.80578,0.03621
2595.87719,0.03592
2593.94861,0.03568
2592.02002,0.03542
2590.09143,0.03509
2588.16285,0.03477
2586.23426,0.03449
2584.30567,0.03422
2582.37709,0.03395
2580.44850,0.03368
2578.51991,0.03337
2576.59133,0.03300
2574.66274,0.03264
2572.73416,0.03240
2570.80557,0.03215
2568.87698,0.03186
2566.94840,0.03161
2565.01981,0.03139
2563.09122,0.03115
2561.16264,0.03087
2559.23405,0.03069
2557.30547,0.03051
2555.37688,0.03024
2553.44829,0.03001
2551.51971,0.02980
2549.59112,0.02956
2547.66253,0.02929
2545.73395,0.02905
2543.80536,0.02888
2541.87677,0.02864
2539.94819,0.02835
2538.01960,0.02814
2536.09102,0.02788
2534.16243,0.02749
2532.23384,0.02723
2530.30526,0.02710
2528.37667,0.02688
2526.44808,0.02663
2524.51950,0.02641
2522.59091,0.02615
2520.66233,0.02591
2518.73374,0.02564
2516.80515,0.02531
2514.87657,0.02504
2512.94798,0.02484
2511.01939,0.02461
2509.09081,0.02440
2507.16222,0.02417
2505.23363,0.02389
2503.30505,0.02359
2501.37646,0.02328
2499.44788,0.02302
2497.51929,0.02273
2495.59070,0.02242
2493.66212,0.02219
2491.73353,0.02200
2489.80494,0.02180
2487.87636,0.02147
2485.94777,0.02111
2484.01919,0.02080
2482.09060,0.02050
2480.16201,0.02030
2478.23343,0.02009
2476.30484,0.01980
2474.37625,0.01947
2472.44767,0.01917
2470.51908,0.01897
2468.59049,0.01871
2466.66191,0.01835
2464.73332,0.01807
2462.80474,0.01787
2460.87615,0.01761
2458.94756,0.01737
2457.01898,0.01718
2455.09039,0.01690
2453.16180,0.01656
2451.23322,0.01623
2449.30463,0.01594
2447.37604,0.01571
2445.44746,0.01554
2443.51887,0.01535
2441.59029,0.01498
2439.66170,0.01469
2437.73311,0.01453
2435.80453,0.01428
2433.87594,0.01404
2431.94735,0.01378
2430.01877,0.01353
2428.09018,0.01330
2426.16160,0.01305
2424.23301,0.01274
2422.30442,0.01240
2420.37584,0.01219
2418.44725,0.01200
2416.51866,0.01177
2414.59008,0.01158
2412.66149,0.01135
2410.73290,0.01108
2408.80432,0.01080
2406.87573,0.01059
2404.94715,0.01039
2403.01856,0.01017
2401.08997,0.01000
2399.16139,0.00978
2397.23280,0.00949
2395.30421,0.00925
2393.37563,0.00909
2391.44704,0.00890
2389.51846,0.00872
2387.58987,0.00856
2385.66128,0.00835
2383.73270,0.00813
2381.80411,0.00788
2379.87552,0.00764
2377.94694,0.00746
2376.01835,0.00726
2374.08976,0.00701
2372.16118,0.00666
2370.23259,0.00634
2368.30401,0.00607
2366.37542,0.00570
2364.44683,0.00534
2362.51825,0.00507
2360.58966,0.00491
2358.66107,0.00472
2356.73249,0.00447
2354.80390,0.00431
2352.87532,0.00426
2350.94673,0.00446
2349.01814,0.00485
2347.08956,0.00499
2345.16097,0.00471
2343.23238,0.00446
2341.30380,0.00435
2339.37521,0.00421
2337.44662,0.00396
2335.51804,0.00370
2333.58945,0.00357
2331.66087,0.00344
2329.73228,0.00326
2327.80369,0.00312
2325.87511,0.00299
2323.94652,0.00287
2322.01793,0.00281
2320.08935,0.00277
2318.16076,0.00273
2316.23217,0.00275
2314.30359,0.00279
2312.37500,0.00273
2310.44642,0.00257
2308.51783,0.00244
2306.58924,0.00243
2304.66066,0.00243
2302.73207,0.00234
2300.80348,0.00224
2298.87490,0.00221
2296.94631,0.00216
2295.01773,0.00204
2293.08914,0.00192
2291.16055,0.00184
2289.23197,0.00179
2287.30338,0.00169
2285.37479,0.00157
2283.44621,0.00146
2281.51762,0.00137
2279.58903,0.00131
2277.66045,0.00120
2275.73186,0.00109
2273.80328,0.00102
2271.87469,0.00098
2269.94610,0.00095
2268.01752,0.00089
2266.08893,0.00082
2264.16034,0.00080
2262.23176,0.00079
2260.30317,0.00071
2258.37459,0.00059
2256.44600,0.00055
2254.51741,0.00053
2252.58883,0.00050
2250.66024,0.00046
2248.73165,0.00043
2246.80307,0.00046
2244.87448,0.00042
2242.94589,0.00030
2241.01731,0.00020
2239.08872,0.00016
2237.16014,0.00021
2235.23155,0.00021
2233.30296,0.00015
2231.37438,0.00014
2229.44579,0.00013
2227.51720,0.00012
2225.58862,0.00013
2223.66003,0.00017
2221.73145,0.00014
2219.80286,0.00005
2217.87427,-0.00000
2215.94569,-0.00007
2214.01710,-0.00013
2212.08851,-0.00007
2210.15993,0.00001
2208.23134,-0.00004
2206.30275,-0.00014
2204.37417,-0.00016
2202.44558,-0.00018
2200.51700,-0.00017
2198.58841,-0.00017
2196.65982,-0.00017
2194.73124,-0.00009
2192.80265,-0.00008
2190.87406,-0.00003
2188.94548,0.00004
2187.01689,0.00000
2185.08830,0.00002
2183.15972,0.00006
2181.23113,0.00011
2179.30255,0.00021
2177.37396,0.00023
2175.44537,0.00019
2173.51679,0.00017
2171.58820,0.00007
2169.65961,0.00000
2167.73103,0.00017
2165.80244,0.00033
2163.87386,0.00034
2161.94527,0.00037
2160.01668,0.00034
2158.08810,0.00030
2156.15951,0.00028
2154.23092,0.00023
2152.30234,0.00019
2150.37375,0.00026
2148.44516,0.00033
2146.51658,0.00034
2144.58799,0.00041
2142.65941,0.00039
2140.73082,0.00033
2138.80223,0.00034
2136.87365,0.00033
2134.94506,0.00028
2133.01647,0.00021
2131.08789,0.00016
2129.15930,0.00011
2127.23072,0.00012
2125.30213,0.00012
2123.37354,0.00007
2121.44496,0.00006
2119.51637,0.00007
2117.58778,0.00008
2115.65920,0.00006
2113.73061,0.00002
2111.80202,0.00006
2109.87344,0.00009
2107.94485,0.00012
2106.01627,0.00014
2104.08768,0.00005
2102.15909,0.00003
2100.23051,0.00005
2098.30192,0.00001
2096.37333,-0.00001
2094.44475,0.00001
2092.51616,0.00004
2090.58758,0.00009
2088.65899,0.00008
2086.73040,-0.00001
2084.80182,-0.00005
2082.87323,-0.00003
2080.94464,0.00000
2079.01606,-0.00003
2077.08747,-0.00008
2075.15888,-0.00013
2073.23030,-0.00011
2071.30171,-0.00010
2069.37313,-0.00013
2067.44454,-0.00011
2065.51595,-0.00016
2063.58737,-0.00023
2061.65878,-0.00013
2059.73019,-0.00007
2057.80161,-0.00008
2055.87302,-0.00011
2053.94443,-0.00017
2052.01585,-0.00015
2050.08726,-0.00003
2048.15868,0.00011
2046.23009,0.00022
2044.30150,0.00038
2042.37292,0.00054
2040.44433,0.00067
2038.51574,0.00086
2036.58716,0.00104
2034.65857,0.00116
2032.72999,0.00129
2030.80140,0.00149
2028.87281,0.00163
2026.94423,0.00163
2025.01564,0.00162
2023.08705,0.00172
2021.15847,0.00182
2019.22988,0.00185
2017.30129,0.00188
2015.37271,0.00196
2013.44412,0.00214
2011.51554,0.00231
2009.58695,0.00238
2007.65836,0.00246
2005.72978,0.00257
2003.80119,0.00273
2001.87260,0.00283
1999.94402,0.00285
1998.01543,0.00285
1996.08685,0.00292
1994.15826,0.00302
1992.22967,0.00288
1990.30109,0.00264
1988.37250,0.00253
1986.44391,0.00249
1984.51533,0.00244
1982.58674,0.00239
1980.65815,0.00239
1978.72957,0.00234
1976.80098,0.00226
1974.87240,0.00218
1972.94381,0.00206
1971.01522,0.00197
1969.08664,0.00186
1967.15805,0.00166
1965.22946,0.00145
1963.30088,0.00130
1961.37229,0.00113
1959.44371,0.00098
1957.51512,0.00090
1955.58653,0.00081
1953.65795,0.00076
1951.72936,0.00068
1949.80077,0.00055
1947.87219,0.00045
1945.94360,0.00043
1944.01501,0.00046
1942.08643,0.00026
1940.15784,0.00004
1938.22926,0.00002
1936.30067,-0.00004
1934.37208,-0.00009
1932.44350,-0.00010
1930.51491,-0.00014
1928.58632,-0.00013
1926.65774,-0.00008
1924.72915,0.00000
1922.80056,-0.00011
1920.87198,-0.00010
1918.94339,0.00005
1917.01481,-0.00000
1915.08622,0.00021
1913.15763,0.00069
1911.22905,0.00107
1909.30046,0.00148
1907.37187,0.00187
1905.44329,0.00239
1903.51470,0.00288
1901.58612,0.00329
1899.65753,0.00376
1897.72894,0.00419
1895.80036,0.00464
1893.87177,0.00502
1891.94318,0.00549
1890.01460,0.00582
1888.08601,0.00585
1886.15742,0.00613
1884.22884,0.00637
1882.30025,0.00656
1880.37167,0.00677
1878.44308,0.00685
1876.51449,0.00690
1874.58591,0.00692
1872.65732,0.00710
1870.72873,0.00727
1868.80015,0.00697
1866.87156,0.00645
1864.94298,0.00622
1863.01439,0.00593
1861.08580,0.00545
1859.15722,0.00497
1857.22863,0.00426
1855.30004,0.00365
1853.37146,0.00300
1851.44287,0.00241
1849.51428,0.00193
1847.58570,0.00154
1845.65711,0.00143
1843.72853,0.00059
1841.79994,0.00000
1839.87135,0.00000
1837.94277,-0.00023
1836.01418,-0.00040
1834.08559,-0.00047
1832.15701,-0.00016
1830.22842,-0.00010
1828.29984,-0.00019
1826.37125,0.00025
1824.44266,0.00036
1822.51408,0.00068
1820.58549,0.00138
1818.65690,0.00197
1816.72832,0.00263
1814.79973,0.00345
1812.87114,0.00450
1810.94256,0.00541
1809.01397,0.00635
1807.08539,0.00766
1805.15680,0.00923
1803.22821,0.01087
1801.29963,0.01243
1799.37104,0.01404
1797.44245,0.01590
1795.51387,0.01820
1793.58528,0.02047
1791.65669,0.02222
1789.72811,0.02430
1787.79952,0.02706
1785.87094,0.02955
1783.94235,0.03194
1782.01376,0.03452
1780.08518,0.03693
1778.15659,0.03936
1776.22800,0.04191
1774.29942,0.04456
1772.37083,0.04653
1770.44225,0.04834
1768.51366,0.05086
1766.58507,0.05287
1764.65649,0.05523
1762.72790,0.05778
1760.79931,0.05977
1758.87073,0.06257
1756.94214,0.06547
1755.01355,0.06842
1753.08497,0.07203
1751.15638,0.07549
1749.22780,0.07897
1747.29921,0.08303
1745.37062,0.08743
1743.44204,0.09203
1741.51345,0.09691
1739.58486,0.10132
1737.65628,0.10558
1735.72769,0.11017
1733.79911,0.11300
1731.87052,0.11521
1729.94193,0.11852
1728.01335,0.12131
1726.08476,0.12420
1724.15617,0.12697
1722.22759,0.12968
1720.29900,0.13313
1718.37041,0.13591
1716.44183,0.13788
1714.51324,0.13993
1712.58466,0.14241
1710.65607,0.14475
1708.72748,0.14669
1706.79890,0.14868
1704.87031,0.15015
1702.94172,0.15264
1701.01314,0.15512
1699.08455,0.15623
1697.15596,0.15911
1695.22738,0.16139
1693.29879,0.16350
1691.37021,0.16703
1689.44162,0.16942
1687.51303,0.17250
1685.58445,0.17564
1683.65586,0.17686
1681.72727,0.17928
1679.79869,0.18231
1677.87010,0.18544
1675.94152,0.18811
1674.01293,0.18996
1672.08434,0.19256
1670.15576,0.19487
1668.22717,0.19632
1666.29858,0.19822
1664.37000,0.20047
1662.44141,0.20159
1660.51282,0.20236
1658.58424,0.20346
1656.65565,0.20467
1654.72707,0.20626
1652.79848,0.20456
1650.86989,0.20303
1648.94131,0.20471
1647.01272,0.20484
1645.08413,0.20364
1643.15555,0.20366
1641.22696,0.20420
1639.29838,0.20461
1637.36979,0.20507
1635.44120,0.20432
1633.51262,0.20337
1631.58403,0.20373
1629.65544,0.20334
1627.72686,0.20225
1625.79827,0.20095
1623.86968,0.19918
1621.94110,0.19675
1620.01251,0.19523
1618.08393,0.19429
1616.15534,0.19123
1614.22675,0.18912
1612.29817,0.18807
1610.36958,0.18633
1608.44099,0.18444
1606.51241,0.18264
1604.58382,0.18131
1602.65524,0.17967
1600.72665,0.17809
1598.79806,0.17659
1596.86948,0.17509
1594.94089,0.17355
1593.01230,0.17181
1591.08372,0.17013
1589.15513,0.16805
1587.22654,0.16603
1585.29796,0.16397
1583.36937,0.16187
1581.44079,0.15967
1579.51220,0.15800
1577.58361,0.15678
1575.65503,0.15379
1573.72644,0.15172
1571.79785,0.15148
1569.86927,0.15036
1567.94068,0.14899
1566.01209,0.14870
1564.08351,0.14845
1562.15492,0.14888
1560.22634,0.14944
1558.29775,0.14742
1556.36916,0.14689
1554.44058,0.14767
1552.51199,0.14766
1550.58340,0.14799
1548.65482,0.14763
1546.72623,0.14746
1544.79765,0.14726
1542.86906,0.14686
1540.94047,0.14649
1539.01189,0.14403
1537.08330,0.14305
1535.15471,0.14316
1533.22613,0.14181
1531.29754,0.14046
1529.36895,0.13990
1527.44037,0.13912
1525.51178,0.13783
1523.58320,0.13748
1521.65461,0.13706
1519.72602,0.13659
1517.79744,0.13720
1515.86885,0.13687
1513.94026,0.13567
1512.01168,0.13387
1510.08309,0.13175
1508.15451,0.12976
1506.22592,0.12517
1504.29733,0.12031
1502.36875,0.11744
1500.44016,0.11413
1498.51157,0.11046
1496.58299,0.10636
1494.65440,0.10238
1492.72581,0.09996
1490.79723,0.09763
1488.86864,0.09505
1486.94006,0.09320
1485.01147,0.09218
1483.08288,0.09203
1481.15430,0.09226
1479.22571,0.09333
1477.29712,0.09556
1475.36854,0.09877
1473.43995,0.10323
1471.51137,0.10844
1469.58278,0.11431
1467.65419,0.11975
1465.72561,0.12271
1463.79702,0.12390
1461.86843,0.12487
1459.93985,0.12631
1458.01126,0.12736
1456.08267,0.12685
1454.15409,0.12702
1452.22550,0.12755
1450.29692,0.12737
1448.36833,0.12696
1446.43974,0.12615
1444.51116,0.12575
1442.58257,0.12556
1440.65398,0.12538
1438.72540,0.12577
1436.79681,0.12548
1434.86822,0.12497
1432.93964,0.12547
1431.01105,0.12590
1429.08247,0.12602
1427.15388,0.12649
1425.22529,0.12707
1423.29671,0.12757
1421.36812,0.12837
1419.43953,0.12854
1417.51095,0.12790
1415.58236,0.12792
1413.65378,0.12780
1411.72519,0.12737
1409.79660,0.12698
1407.86802,0.12638
1405.93943,0.12588
1404.01084,0.12530
1402.08226,0.12486
1400.15367,0.12408
1398.22508,0.12291
1396.29650,0.12209
1394.36791,0.12103
1392.43933,0.12011
1390.51074,0.12005
1388.58215,0.12003
1386.65357,0.11916
1384.72498,0.11851
1382.79639,0.11910
1380.86781,0.12004
1378.93922,0.12052
1377.01064,0.12027
1375.08205,0.11949
1373.15346,0.11839
1371.22488,0.11725
1369.29629,0.11622
1367.36770,0.11484
1365.43912,0.11345
1363.51053,0.11199
1361.58194,0.11046
1359.65336,0.10930
1357.72477,0.10841
1355.79619,0.10757
1353.86760,0.10664
1351.93901,0.10583
1350.01043,0.10507
1348.08184,0.10439
1346.15325,0.10395
1344.22467,0.10355
1342.29608,0.10314
1340.36750,0.10258
1338.43891,0.10204
1336.51032,0.10165
1334.58174,0.10122
1332.65315,0.10079
1330.72456,0.10040
1328.79598,0.10015
1326.86739,0.09992
1324.93880,0.09957
1323.01022,0.09922
1321.08163,0.09899
1319.15305,0.09877
1317.22446,0.09845
1315.29587,0.09821
1313.36729,0.09801
1311.43870,0.09772
1309.51011,0.09743
1307.58153,0.09726
1305.65294,0.09708
1303.72435,0.09680
1301.79577,0.09678
1299.86718,0.09700
1297.93860,0.09724
1296.01001,0.09765
1294.08142,0.09822
1292.15284,0.09884
1290.22425,0.09969
1288.29566,0.10087
1286.36708,0.10232
1284.43849,0.10393
1282.50991,0.10555
1280.58132,0.10730
1278.65273,0.10916
1276.72415,0.11090
1274.79556,0.11280
1272.86697,0.11484
1270.93839,0.11685
1269.00980,0.11908
1267.08121,0.12144
1265.15263,0.12376
1263.22404,0.12622
1261.29546,0.12898
1259.36687,0.13213
1257.43828,0.13595
1255.50970,0.14051
1253.58111,0.14546
1251.65252,0.15071
1249.72394,0.15610
1247.79535,0.16140
1245.86677,0.16663
1243.93818,0.17173
1242.00959,0.17662
1240.08101,0.18110
1238.15242,0.18509
1236.22383,0.18877
1234.29525,0.19222
1232.36666,0.19531
1230.43807,0.19814
1228.50949,0.20083
1226.58090,0.20312
1224.65232,0.20524
1222.72373,0.20756
1220.79514,0.20963
1218.86656,0.21140
1216.93797,0.21333
1215.00938,0.21521
1213.08080,0.21690
1211.15221,0.21878
1209.22363,0.22052
1207.29504,0.22195
1205.36645,0.22346
1203.43787,0.22504
1201.50928,0.22649
1199.58069,0.22760
1197.65211,0.22856
1195.72352,0.22953
1193.79493,0.23062
1191.86635,0.23190
1189.93776,0.23321
1188.00918,0.23450
1186.08059,0.23583
1184.15200,0.23749
1182.22342,0.23930
1180.29483,0.24128
1178.36624,0.24384
1176.43766,0.24657
1174.50907,0.24911
1172.58048,0.25146
1170.65190,0.25384
1168.72331,0.25653
1166.79473,0.25941
1164.86614,0.26209
1162.93755,0.26435
1161.00897,0.26639
1159.08038,0.26781
1157.15179,0.26853
1155.22321,0.26940
1153.29462,0.27079
1151.36604,0.27251
1149.43745,0.27423
1147.50886,0.27568
1145.58028,0.27734
1143.65169,0.27995
1141.72310,0.28271
1139.79452,0.28531
1137.86593,0.28849
1135.93734,0.29218
1134.00876,0.29603
1132.08017,0.29941
1130.15159,0.30277
1128.22300,0.30715
1126.29441,0.31262
1124.36583,0.31809
1122.43724,0.32299
1120.50865,0.32794
1118.58007,0.33304
1116.65148,0.33884
1114.72290,0.34502
1112.79431,0.35076
1110.86572,0.35637
1108.93714,0.36201
1107.00855,0.36787
1105.07996,0.37271
1103.15138,0.37624
1101.22279,0.37929
1099.29420,0.38137
1097.36562,0.38266
1095.43703,0.38329
1093.50845,0.38300
1091.57986,0.38213
1089.65127,0.38125
1087.72269,0.38028
1085.79410,0.37903
1083.86551,0.37698
1081.93693,0.37457
1080.00834,0.37296
1078.07976,0.37092
1076.15117,0.36841
1074.22258,0.36612
1072.29400,0.36382
1070.36541,0.36171
1068.43682,0.35949
1066.50824,0.35747
1064.57965,0.35536
1062.65106,0.35280
1060.72248,0.35003
1058.79389,0.34683
1056.86531,0.34367
1054.93672,0.34092
1053.00813,0.33859
1051.07955,0.33618
1049.15096,0.33377
1047.22237,0.33214
1045.29379,0.33145
1043.36520,0.33129
1041.43661,0.33110
1039.50803,0.33088
1037.57944,0.33069
1035.65086,0.33055
1033.72227,0.32946
1031.79368,0.32708
1029.86510,0.32458
1027.93651,0.32123
1026.00792,0.31730
1024.07934,0.31351
1022.15075,0.30919
1020.22217,0.30505
1018.29358,0.30103
1016.36499,0.29689
1014.43641,0.29312
1012.50782,0.28920
1010.57923,0.28497
1008.65065,0.28063
1006.72206,0.27623
1004.79347,0.27159
1002.86489,0.26649
1000.93630,0.26111
999.00772,0.25561
997.07913,0.24996
995.15054,0.24425
993.22196,0.23859
991.29337,0.23285
989.36478,0.22705
987.43620,0.22111
985.50761,0.21463
983.57903,0.20774
981.65044,0.20052
979.72185,0.19261
977.79327,0.18444
975.86468,0.17648
973.93609,0.16839
972.00751,0.16017
970.07892,0.15240
968.15033,0.14542
966.22175,0.13887
964.29316,0.13237
962.36458,0.12655
960.43599,0.12149
958.50740,0.11685
956.57882,0.11289
954.65023,0.10940
952.72164,0.10614
950.79306,0.10327
948.86447,0.10090
946.93589,0.09903
945.00730,0.09744
943.07871,0.09599
941.15013,0.09455
939.22154,0.09302
937.29295,0.09160
935.36437,0.09024
933.43578,0.08881
931.50719,0.08757
929.57861,0.08658
927.65002,0.08551
925.72144,0.08422
923.79285,0.08321
921.86426,0.08290
919.93568,0.08268
918.00709,0.08212
916.07850,0.08141
914.14992,0.08055
912.22133,0.07905
910.29274,0.07649
908.36416,0.07312
906.43557,0.06907
904.50699,0.06429
902.57840,0.05931
900.64981,0.05460
898.72123,0.05013
896.79264,0.04617
894.86405,0.04290
892.93547,0.03952
891.00688,0.03617
889.07830,0.03342
887.14971,0.03074
885.22112,0.02794
883.29254,0.02525
881.36395,0.02291
879.43536,0.02048
877.50678,0.01790
875.57819,0.01580
873.64960,0.01379
871.72102,0.01165
869.79243,0.00939
867.86385,0.00694
865.93526,0.00489
864.00667,0.00342
862.07809,0.00229
860.14950,0.00128
858.22091,0.00049
856.29233,0.00000
854.36374,-0.00027
852.43516,-0.00008
850.50657,0.00020
848.57798,0.00094
846.64940,0.00234
844.72081,0.00390
842.79222,0.00594
840.86364,0.00874
838.93505,0.01176
837.00646,0.01478
835.07788,0.01806
833.14929,0.02126
831.22071,0.02378
829.29212,0.02566
827.36353,0.02700
825.43495,0.02814
823.50636,0.02922
821.57777,0.02999
819.64919,0.03074
817.72060,0.03219
815.79201,0.03418
813.86343,0.03618
811.93484,0.03857
810.00626,0.04176
808.07767,0.04611
806.14908,0.05129
804.22050,0.05632
802.29191,0.06043
800.36332,0.06241
798.43474,0.06161
796.50615,0.05842
794.57757,0.05449
792.64898,0.05111
790.72039,0.04777
788.79181,0.04509
786.86322,0.04371
784.93463,0.04337
783.00605,0.04370
781.07746,0.04367
779.14887,0.04224
777.22029,0.03865
775.29170,0.03373
773.36312,0.02885
771.43453,0.02481
769.50594,0.02218
767.57736,0.02036
765.64877,0.01918
763.72018,0.01883
761.79160,0.01865
759.86301,0.01845
757.93443,0.01824
756.00584,0.01764
754.07725,0.01727
752.14867,0.01721
750.22008,0.01623
748.29149,0.01513
746.36291,0.01404
744.43432,0.01216
742.50573,0.01010
740.57715,0.00818
738.64856,0.00669
736.71998,0.00512
734.79139,0.00376
732.86280,0.00357
730.93422,0.00354
729.00563,0.00299
727.07704,0.00279
725.14846,0.00349
723.21987,0.00409
721.29129,0.00411
719.36270,0.00362
717.43411,0.00243
715.50553,0.00102
713.57694,0.00033
711.64835,0.00102
709.71977,0.00167
707.79118,0.00236
705.86259,0.00377
703.93401,0.00513
702.00542,0.00761
700.07684,0.01111
698.14825,0.01484
696.21966,0.01763
694.29108,0.01702
692.36249,0.01393
690.43390,0.01075
688.50532,0.00866
686.57673,0.00736
684.64814,0.00636
682.71956,0.00547
680.79097,0.00461
678.86239,0.00408
676.93380,0.00355
675.00521,0.00363
673.07663,0.00360
671.14804,0.00258
669.21945,0.00192
667.29087,0.00189
665.36228,0.00191
663.43370,0.00090
661.50511,-0.00041
659.57652,0.00008
657.64794,0.00160
655.71935,0.00269
653.79076,0.00295
651.86218,0.00302
649.93359,0.00383
648.00500,0.00471
646.07642,0.00478
644.14783,0.00493
642.21925,0.00572
640.29066,0.00638
638.36207,0.00706
636.43349,0.00783
634.50490,0.00838
632.57631,0.00869
630.64773,0.00909
628.71914,0.01033
626.79056,0.01176
624.86197,0.01226
622.93338,0.01211
621.00480,0.01288
619.07621,0.01380
617.14762,0.01308
615.21904,0.01323
613.29045,0.01490
611.36186,0.01629
609.43328,0.01774
607.50469,0.01900
605.57611,0.01995
603.64752,0.02079
601.71893,0.02149
599.79035,0.02286
597.86176,0.02539
595.93317,0.02789
594.00459,0.03058
592.07600,0.03439
590.14742,0.03702
588.21883,0.03814
586.29024,0.03950
584.36166,0.04232
582.43307,0.04634
580.50448,0.04906
578.57590,0.05167
576.64731,0.05529
574.71872,0.05880
572.79014,0.06297
570.86155,0.06735
568.93297,0.07067
567.00438,0.07437
565.07579,0.07887
563.14721,0.08218
561.21862,0.08625
559.29003,0.09151
557.36145,0.09537
555.43286,0.09753
553.50427,0.09838
551.57569,0.10157
549.64710,0.10666
547.71852,0.11108
545.78993,0.11489
543.86134,0.11710
541.93276,0.12048
540.00417,0.12521
538.07558,0.13018
536.14700,0.13469
534.21841,0.13622
532.28983,0.13739
530.36124,0.13862
528.43265,0.13920
526.50407,0.14031
524.57548,0.13987
522.64689,0.13765
520.71831,0.13488
518.78972,0.13109
516.86113,0.12691
514.93255,0.12392
513.00396,0.12073
511.07538,0.11748
509.14679,0.11617
507.21820,0.11595
505.28962,0.11647
503.36103,0.11747
501.43244,0.11912
499.50386,0.12232
497.57527,0.12816
495.64669,0.13550
493.71810,0.14218
491.78951,0.15168
489.86093,0.16347
487.93234,0.17451
486.00375,0.18704
484.07517,0.20058
482.14658,0.21156
480.21799,0.21887
478.28941,0.22755
476.36082,0.23639
474.43224,0.23924
472.50365,0.23790
470.57506,0.23444
468.64648,0.23132
466.71789,0.22438
464.78930,0.21191
462.86072,0.20267
460.93213,0.19297
459.00355,0.17912
457.07496,0.16870
455.14637,0.16008
453.21779,0.15053
451.28920,0.14233
449.36061,0.13594
447.43203,0.12974
445.50344,0.12098
443.57485,0.11387
441.64627,0.10729
439.71768,0.10039
437.78910,0.09645
435.86051,0.09242
433.93192,0.08873
432.00334,0.08442
430.07475,0.08272
428.14616,0.08350
426.21758,0.07996
424.28899,0.06825
422.36040,0.05491
420.43182,0.05403
418.50323,0.05446
416.57465,0.04981
414.64606,0.04152
412.71747,0.02990
410.78889,0.02457
408.86030,0.02168
406.93171,0.01991
405.00313,0.00905
403.07454,0.00000
401.14596,-0.00029
399.21737,0.00000
