3747.24323,0.00000
3745.31464,0.00190
3743.38605,0.00041
3741.45747,0.00030
3739.52888,0.00232
3737.60030,0.00322
3735.67171,0.00318
3733.74312,0.00307
3731.81454,0.00337
3729.88595,0.00381
3727.95736,0.00514
3726.02878,0.00620
3724.10019,0.00686
3722.17161,0.00828
3720.24302,0.00940
3718.31443,0.01133
3716.38585,0.01371
3714.45726,0.01663
3712.52867,0.01966
3710.60009,0.02174
3708.67150,0.02493
3706.74291,0.02833
3704.81433,0.03207
3702.88574,0.03573
3700.95716,0.03818
3699.02857,0.04047
3697.09998,0.04182
3695.17140,0.04277
3693.24281,0.04330
3691.31422,0.04420
3689.38564,0.04527
3687.45705,0.04566
3685.52846,0.04766
3683.59988,0.05071
3681.67129,0.05379
3679.74271,0.05691
3677.81412,0.06110
3675.88553,0.06487
3673.95695,0.06772
3672.02836,0.07282
3670.09977,0.07721
3668.17119,0.08054
3666.24260,0.08517
3664.31402,0.08957
3662.38543,0.09385
3660.45684,0.09795
3658.52826,0.10222
3656.59967,0.10581
3654.67108,0.10865
3652.74250,0.11271
3650.81391,0.11623
3648.88532,0.11821
3646.95674,0.12014
3645.02815,0.12322
3643.09957,0.12655
3641.17098,0.12913
3639.24239,0.13163
3637.31381,0.13420
3635.38522,0.13711
3633.45663,0.13985
3631.52805,0.14293
3629.59946,0.14536
3627.67088,0.14542
3625.74229,0.14664
3623.81370,0.14841
3621.88512,0.14931
3619.95653,0.14914
3618.02794,0.14691
3616.09936,0.14541
3614.17077,0.14448
3612.24218,0.14315
3610.31360,0.14212
3608.38501,0.14078
3606.45643,0.13956
3604.52784,0.13876
3602.59925,0.13797
3600.67067,0.13710
3598.74208,0.13647
3596.81349,0.13613
3594.88491,0.13537
3592.95632,0.13453
3591.02774,0.13453
3589.09915,0.13463
3587.17056,0.13403
3585.24198,0.13382
3583.31339,0.13429
3581.38480,0.13476
3579.45622,0.13518
3577.52763,0.13550
3575.59904,0.13592
3573.67046,0.13638
3571.74187,0.13710
3569.81329,0.13835
3567.88470,0.13918
3565.95611,0.13926
3564.02753,0.13973
3562.09894,0.14081
3560.17035,0.14179
3558.24177,0.14260
3556.31318,0.14346
3554.38459,0.14438
3552.45601,0.14528
3550.52742,0.14604
3548.59884,0.14686
3546.67025,0.14780
3544.74166,0.14878
3542.81308,0.14961
3540.88449,0.15049
3538.95590,0.15144
3537.02732,0.15220
3535.09873,0.15320
3533.17015,0.15434
3531.24156,0.15529
3529.31297,0.15613
3527.38439,0.15705
3525.45580,0.15815
3523.52721,0.15909
3521.59863,0.16002
3519.67004,0.16087
3517.74145,0.16165
3515.81287,0.16267
3513.88428,0.16346
3511.95570,0.16417
3510.02711,0.16503
3508.09852,0.16592
3506.16994,0.16704
3504.24135,0.16800
3502.31276,0.16865
3500.38418,0.16957
3498.45559,0.17046
3496.52701,0.17124
3494.59842,0.17220
3492.66983,0.17309
3490.74125,0.17400
3488.81266,0.17480
3486.88407,0.17554
3484.95549,0.17657
3483.02690,0.17744
3481.09831,0.17799
3479.16973,0.17866
3477.24114,0.17951
3475.31256,0.18014
3473.38397,0.18081
3471.45538,0.18174
3469.52680,0.18255
3467.59821,0.18309
3465.66962,0.18353
3463.74104,0.18429
3461.81245,0.18504
3459.88386,0.18553
3457.95528,0.18612
3456.02669,0.18676
3454.09811,0.18748
3452.16952,0.18813
3450.24093,0.18871
3448.31235,0.18934
3446.38376,0.18991
3444.45517,0.19062
3442.52659,0.19124
3440.59800,0.19164
3438.66942,0.19208
3436.74083,0.19264
3434.81224,0.19315
3432.88366,0.19359
3430.95507,0.19400
3429.02648,0.19436
3427.09790,0.19483
3425.16931,0.19547
3423.24072,0.19599
3421.31214,0.19633
3419.38355,0.19669
3417.45497,0.19706
3415.52638,0.19746
3413.59779,0.19776
3411.66921,0.19789
3409.74062,0.19819
3407.81203,0.19875
3405.88345,0.19920
3403.95486,0.19933
3402.02628,0.19947
3400.09769,0.19972
3398.16910,0.20002
3396.24052,0.20043
3394.31193,0.20071
3392.38334,0.20080
3390.45476,0.20080
3388.52617,0.20098
3386.59758,0.20128
3384.66900,0.20136
3382.74041,0.20135
3380.81183,0.20138
3378.88324,0.20155
3376.95465,0.20179
3375.02607,0.20204
3373.09748,0.20225
3371.16889,0.20225
3369.24031,0.20232
3367.31172,0.20260
3365.38314,0.20279
3363.45455,0.20277
3361.52596,0.20283
3359.59738,0.20301
3357.66879,0.20310
3355.74020,0.20318
3353.81162,0.20332
3351.88303,0.20348
3349.95444,0.20356
3348.02586,0.20368
3346.09727,0.20378
3344.16869,0.20380
3342.24010,0.20381
3340.31151,0.20365
3338.38293,0.20369
3336.45434,0.20380
3334.52575,0.20358
3332.59717,0.20344
3330.66858,0.20348
3328.73999,0.20352
3326.81141,0.20341
3324.88282,0.20329
3322.95424,0.20336
3321.02565,0.20336
3319.09706,0.20333
3317.16848,0.20329
3315.23989,0.20318
3313.31130,0.20313
3311.38272,0.20310
3309.45413,0.20281
3307.52555,0.20239
3305.59696,0.20222
3303.66837,0.20211
3301.73979,0.20195
3299.81120,0.20184
3297.88261,0.20161
3295.95403,0.20132
3294.02544,0.20113
3292.09685,0.20087
3290.16827,0.20051
3288.23968,0.20019
3286.31110,0.19975
3284.38251,0.19922
3282.45392,0.19883
3280.52534,0.19837
3278.59675,0.19784
3276.66816,0.19738
3274.73958,0.19684
3272.81099,0.19620
3270.88241,0.19541
3268.95382,0.19456
3267.02523,0.19382
3265.09665,0.19307
3263.16806,0.19219
3261.23947,0.19119
3259.31089,0.19025
3257.38230,0.18944
3255.45371,0.18873
3253.52513,0.18793
3251.59654,0.18690
3249.66796,0.18591
3247.73937,0.18517
3245.81078,0.18453
3243.88220,0.18377
3241.95361,0.18297
3240.02502,0.18222
3238.09644,0.18147
3236.16785,0.18067
3234.23927,0.17968
3232.31068,0.17878
3230.38209,0.17818
3228.45351,0.17757
3226.52492,0.17686
3224.59633,0.17616
3222.66775,0.17533
3220.73916,0.17441
3218.81057,0.17376
3216.88199,0.17328
3214.95340,0.17262
3213.02482,0.17182
3211.09623,0.17106
3209.16764,0.17031
3207.23906,0.16948
3205.31047,0.16862
3203.38188,0.16793
3201.45330,0.16727
3199.52471,0.16652
3197.59612,0.16575
3195.66754,0.16485
3193.73895,0.16417
3191.81037,0.16358
3189.88178,0.16266
3187.95319,0.16177
3186.02461,0.16105
3184.09602,0.16025
3182.16743,0.15932
3180.23885,0.15847
3178.31026,0.15769
3176.38168,0.15681
3174.45309,0.15606
3172.52450,0.15524
3170.59592,0.15430
3168.66733,0.15356
3166.73874,0.15297
3164.81016,0.15230
3162.88157,0.15141
3160.95298,0.15057
3159.02440,0.14978
3157.09581,0.14896
3155.16723,0.14817
3153.23864,0.14742
3151.31005,0.14675
3149.38147,0.14600
3147.45288,0.14526
3145.52429,0.14460
3143.59571,0.14387
3141.66712,0.14334
3139.73854,0.14287
3137.80995,0.14219
3135.88136,0.14152
3133.95278,0.14103
3132.02419,0.14052
3130.09560,0.13995
3128.16702,0.13945
3126.23843,0.13886
3124.30984,0.13826
3122.38126,0.13778
3120.45267,0.13730
3118.52409,0.13681
3116.59550,0.13635
3114.66691,0.13599
3112.73833,0.13559
3110.80974,0.13512
3108.88115,0.13465
3106.95257,0.13416
3105.02398,0.13370
3103.09540,0.13333
3101.16681,0.13303
3099.23822,0.13260
3097.30964,0.13216
3095.38105,0.13179
3093.45246,0.13128
3091.52388,0.13077
3089.59529,0.13034
3087.66670,0.13005
3085.73812,0.12978
3083.80953,0.12932
3081.88095,0.12880
3079.95236,0.12833
3078.02377,0.12796
3076.09519,0.12749
3074.16660,0.12681
3072.23801,0.12626
3070.30943,0.12580
3068.38084,0.12526
3066.45225,0.12469
3064.52367,0.12410
3062.59508,0.12351
3060.66650,0.12291
3058.73791,0.12232
3056.80932,0.12174
3054.88074,0.12108
3052.95215,0.12040
3051.02356,0.11986
3049.09498,0.11935
3047.16639,0.11870
3045.23781,0.11808
3043.30922,0.11753
3041.38063,0.11687
3039.45205,0.11620
3037.52346,0.11566
3035.59487,0.11523
3033.66629,0.11484
3031.73770,0.11442
3029.80911,0.11400
3027.88053,0.11361
3025.95194,0.11322
3024.02336,0.11288
3022.09477,0.11253
3020.16618,0.11216
3018.23760,0.11195
3016.30901,0.11183
3014.38042,0.11177
3012.45184,0.11174
3010.52325,0.11172
3008.59467,0.11190
3006.66608,0.11228
3004.73749,0.11251
3002.80891,0.11277
3000.88032,0.11342
2998.95173,0.11399
2997.02315,0.11445
2995.09456,0.11518
2993.16597,0.11615
2991.23739,0.11731
2989.30880,0.11849
2987.38022,0.11962
2985.45163,0.12093
2983.52304,0.12253
2981.59446,0.12412
2979.66587,0.12582
2977.73728,0.12779
2975.80870,0.12975
2973.88011,0.13176
2971.95153,0.13395
2970.02294,0.13627
2968.09435,0.13878
2966.16577,0.14128
2964.23718,0.14360
2962.30859,0.14584
2960.38001,0.14812
2958.45142,0.15021
2956.52283,0.15184
2954.59425,0.15331
2952.66566,0.15499
2950.73708,0.15683
2948.80849,0.15886
2946.87990,0.16140
2944.95132,0.16466
2943.02273,0.16866
2941.09414,0.17324
2939.16556,0.17819
2937.23697,0.18343
2935.30838,0.18869
2933.37980,0.19375
2931.45121,0.19849
2929.52263,0.20281
2927.59404,0.20669
2925.66545,0.20959
2923.73687,0.21099
2921.80828,0.21073
2919.87969,0.20852
2917.95111,0.20388
2916.02252,0.19656
2914.09394,0.18750
2912.16535,0.17870
2910.23676,0.17158
2908.30818,0.16595
2906.37959,0.16131
2904.45100,0.15746
2902.52242,0.15418
2900.59383,0.15126
2898.66524,0.14837
2896.73666,0.14558
2894.80807,0.14291
2892.87949,0.14024
2890.95090,0.13775
2889.02231,0.13544
2887.09373,0.13323
2885.16514,0.13128
2883.23655,0.12970
2881.30797,0.12857
2879.37938,0.12785
2877.45080,0.12756
2875.52221,0.12751
2873.59362,0.12755
2871.66504,0.12783
2869.73645,0.12822
2867.80786,0.12880
2865.87928,0.12999
2863.95069,0.13218
2862.02210,0.13574
2860.09352,0.14066
2858.16493,0.14650
2856.23635,0.15231
2854.30776,0.15681
2852.37917,0.15845
2850.45059,0.15551
2848.52200,0.14770
2846.59341,0.13696
2844.66483,0.12612
2842.73624,0.11674
2840.80766,0.10896
2838.87907,0.10269
2836.95048,0.09773
2835.02190,0.09380
2833.09331,0.09056
2831.16472,0.08784
2829.23614,0.08556
2827.30755,0.08348
2825.37896,0.08159
2823.45038,0.07995
2821.52179,0.07846
2819.59321,0.07705
2817.66462,0.07569
2815.73603,0.07451
2813.80745,0.07352
2811.87886,0.07255
2809.95027,0.07156
2808.02169,0.07061
2806.09310,0.06962
2804.16451,0.06872
2802.23593,0.06795
2800.30734,0.06713
2798.37876,0.06648
2796.45017,0.06592
2794.52158,0.06514
2792.59300,0.06436
2790.66441,0.06371
2788.73582,0.06315
2786.80724,0.06257
2784.87865,0.06190
2782.95007,0.06125
2781.02148,0.06073
2779.09289,0.06019
2777.16431,0.05957
2775.23572,0.05911
2773.30713,0.05864
2771.37855,0.05816
2769.44996,0.05782
2767.52137,0.05742
2765.59279,0.05700
2763.66420,0.05655
2761.73562,0.05618
2759.80703,0.05589
2757.87844,0.05552
2755.94986,0.05516
2754.02127,0.05484
2752.09268,0.05450
2750.16410,0.05410
2748.23551,0.05373
2746.30693,0.05346
2744.37834,0.05322
2742.44975,0.05297
2740.52117,0.05263
2738.59258,0.05222
2736.66399,0.05179
2734.73541,0.05146
2732.80682,0.05121
2730.87823,0.05091
2728.94965,0.05060
2727.02106,0.05027
2725.09248,0.04989
2723.16389,0.04955
2721.23530,0.04915
2719.30672,0.04870
2717.37813,0.04834
2715.44954,0.04789
2713.52096,0.04744
2711.59237,0.04715
2709.66379,0.04673
2707.73520,0.04630
2705.80661,0.04596
2703.87803,0.04562
2701.94944,0.04539
2700.02085,0.04519
2698.09227,0.04498
2696.16368,0.04477
2694.23509,0.04450
2692.30651,0.04422
2690.37792,0.04400
2688.44934,0.04377
2686.52075,0.04339
2684.59216,0.04307
2682.66358,0.04282
2680.73499,0.04258
2678.80640,0.04240
2676.87782,0.04207
2674.94923,0.04167
2673.02064,0.04142
2671.09206,0.04117
2669.16347,0.04076
2667.23489,0.04037
2665.30630,0.04007
2663.37771,0.03976
2661.44913,0.03951
2659.52054,0.03925
2657.59195,0.03892
2655.66337,0.03863
2653.73478,0.03845
2651.80620,0.03832
2649.87761,0.03807
2647.94902,0.03772
2646.02044,0.03744
2644.09185,0.03723
2642.16326,0.03701
2640.23468,0.03670
2638.30609,0.03634
2636.37750,0.03608
2634.44892,0.03584
2632.52033,0.03560
2630.59175,0.03539
2628.66316,0.03510
2626.73457,0.03480
2624.80599,0.03449
2622.87740,0.03426
2620.94881,0.03408
2619.02023,0.03378
2617.09164,0.03347
2615.16306,0.03313
2613.23447,0.03289
2611.30588,0.03270
2609.37730,0.03237
2607.44871,0.03207
2605.52012,0.03181
2603.59154,0.03153
2601.66295,0.03126
2599.73436,0.03101
2597.80578,0.03079
2595.87719,0.03055
2593.94861,0.03026
2592.02002,0.02997
2590.09143,0.02973
2588.16285,0.02944
2586.23426,0.02916
2584.30567,0.02893
2582.37709,0.02869
2580.44850,0.02842
2578.51991,0.02818
2576.59133,0.02798
2574.66274,0.02765
2572.73416,0.02733
2570.80557,0.02714
2568.87698,0.02691
2566.94840,0.02672
2565.01981,0.02653
2563.09122,0.02633
2561.16264,0.02617
2559.23405,0.02590
2557.30547,0.02566
2555.37688,0.02549
2553.44829,0.02527
2551.51971,0.02507
2549.59112,0.02489
2547.66253,0.02461
2545.73395,0.02434
2543.80536,0.02414
2541.87677,0.02389
2539.94819,0.02373
2538.01960,0.02362
2536.09102,0.02343
2534.16243,0.02323
2532.23384,0.02293
2530.30526,0.02266
2528.37667,0.02255
2526.44808,0.02241
2524.51950,0.02222
2522.59091,0.02202
2520.66233,0.02180
2518.73374,0.02160
2516.80515,0.02145
2514.87657,0.02122
2512.94798,0.02092
2511.01939,0.02062
2509.09081,0.02032
2507.16222,0.02012
2505.23363,0.01993
2503.30505,0.01970
2501.37646,0.01947
2499.44788,0.01920
2497.51929,0.01897
2495.59070,0.01881
2493.66212,0.01859
2491.73353,0.01830
2489.80494,0.01804
2487.87636,0.01783
2485.94777,0.01756
2484.01919,0.01733
2482.09060,0.01715
2480.16201,0.01688
2478.23343,0.01667
2476.30484,0.01641
2474.37625,0.01600
2472.44767,0.01578
2470.51908,0.01567
2468.59049,0.01546
2466.66191,0.01523
2464.73332,0.01505
2462.80474,0.01490
2460.87615,0.01469
2458.94756,0.01446
2457.01898,0.01422
2455.09039,0.01390
2453.16180,0.01355
2451.23322,0.01326
2449.30463,0.01308
2447.37604,0.01292
2445.44746,0.01265
2443.51887,0.01243
2441.59029,0.01232
2439.66170,0.01211
2437.73311,0.01181
2435.80453,0.01169
2433.87594,0.01165
2431.94735,0.01140
2430.01877,0.01108
2428.09018,0.01081
2426.16160,0.01057
2424.23301,0.01041
2422.30442,0.01024
2420.37584,0.01001
2418.44725,0.00976
2416.51866,0.00959
2414.59008,0.00946
2412.66149,0.00925
2410.73290,0.00904
2408.80432,0.00889
2406.87573,0.00875
2404.94715,0.00855
2403.01856,0.00832
2401.08997,0.00808
2399.16139,0.00788
2397.23280,0.00776
2395.30421,0.00764
2393.37563,0.00749
2391.44704,0.00734
2389.51846,0.00720
2387.58987,0.00701
2385.66128,0.00675
2383.73270,0.00665
2381.80411,0.00660
2379.87552,0.00652
2377.94694,0.00650
2376.01835,0.00636
2374.08976,0.00628
2372.16118,0.00622
2370.23259,0.00595
2368.30401,0.00576
2366.37542,0.00568
2364.44683,0.00553
2362.51825,0.00525
2360.58966,0.00495
2358.66107,0.00475
2356.73249,0.00460
2354.80390,0.00449
2352.87532,0.00432
2350.94673,0.00421
2349.01814,0.00449
2347.08956,0.00482
2345.16097,0.00479
2343.23238,0.00461
2341.30380,0.00448
2339.37521,0.00442
2337.44662,0.00426
2335.51804,0.00402
2333.58945,0.00389
2331.66087,0.00370
2329.73228,0.00349
2327.80369,0.00335
2325.87511,0.00322
2323.94652,0.00308
2322.01793,0.00296
2320.08935,0.00293
2318.16076,0.00284
2316.23217,0.00272
2314.30359,0.00270
2312.37500,0.00265
2310.44642,0.00258
2308.51783,0.00252
2306.58924,0.00241
2304.66066,0.00225
2302.73207,0.00209
2300.80348,0.00200
2298.87490,0.00200
2296.94631,0.00197
2295.01773,0.00186
2293.08914,0.00179
2291.16055,0.00167
2289.23197,0.00151
2287.30338,0.00143
2285.37479,0.00137
2283.44621,0.00133
2281.51762,0.00129
2279.58903,0.00120
2277.66045,0.00116
2275.73186,0.00111
2273.80328,0.00107
2271.87469,0.00103
2269.94610,0.00092
2268.01752,0.00080
2266.08893,0.00069
2264.16034,0.00066
2262.23176,0.00068
2260.30317,0.00064
2258.37459,0.00065
2256.44600,0.00060
2254.51741,0.00050
2252.58883,0.00046
2250.66024,0.00050
2248.73165,0.00048
2246.80307,0.00034
2244.87448,0.00028
2242.94589,0.00032
2241.01731,0.00033
2239.08872,0.00033
2237.16014,0.00031
2235.23155,0.00033
2233.30296,0.00034
2231.37438,0.00034
2229.44579,0.00025
2227.51720,0.00012
2225.58862,0.00012
2223.66003,0.00013
2221.73145,0.00015
2219.80286,0.00015
2217.87427,0.00006
2215.94569,0.00000
2214.01710,-0.00003
2212.08851,-0.00004
2210.15993,-0.00005
2208.23134,-0.00002
2206.30275,0.00004
2204.37417,0.00000
2202.44558,0.00000
2200.51700,0.00007
2198.58841,0.00008
2196.65982,0.00004
2194.73124,0.00010
2192.80265,0.00018
2190.87406,0.00013
2188.94548,0.00000
2187.01689,-0.00002
2185.08830,0.00012
2183.15972,0.00023
2181.23113,0.00017
2179.30255,0.00014
2177.37396,0.00018
2175.44537,0.00022
2173.51679,0.00024
2171.58820,0.00009
2169.65961,0.00000
2167.73103,0.00020
2165.80244,0.00033
2163.87386,0.00029
2161.94527,0.00028
2160.01668,0.00028
2158.08810,0.00033
2156.15951,0.00046
2154.23092,0.00055
2152.30234,0.00054
2150.37375,0.00054
2148.44516,0.00053
2146.51658,0.00047
2144.58799,0.00046
2142.65941,0.00045
2140.73082,0.00048
2138.80223,0.00051
2136.87365,0.00050
2134.94506,0.00048
2133.01647,0.00041
2131.08789,0.00036
2129.15930,0.00031
2127.23072,0.00022
2125.30213,0.00017
2123.37354,0.00018
2121.44496,0.00025
2119.51637,0.00029
2117.58778,0.00022
2115.65920,0.00016
2113.73061,0.00006
2111.80202,0.00004
2109.87344,0.00016
2107.94485,0.00022
2106.01627,0.00015
2104.08768,0.00007
2102.15909,0.00003
2100.23051,-0.00002
2098.30192,-0.00002
2096.37333,0.00007
2094.44475,0.00006
2092.51616,0.00001
2090.58758,0.00002
2088.65899,0.00002
2086.73040,-0.00004
2084.80182,-0.00008
2082.87323,-0.00001
2080.94464,0.00005
2079.01606,0.00000
2077.08747,-0.00008
2075.15888,-0.00008
2073.23030,-0.00012
2071.30171,-0.00017
2069.37313,-0.00022
2067.44454,-0.00028
2065.51595,-0.00025
2063.58737,-0.00024
2061.65878,-0.00033
2059.73019,-0.00039
2057.80161,-0.00037
2055.87302,-0.00031
2053.94443,-0.00027
2052.01585,-0.00027
2050.08726,-0.00029
2048.15868,-0.00026
2046.23009,-0.00018
2044.30150,-0.00005
2042.37292,0.00020
2040.44433,0.00044
2038.51574,0.00059
2036.58716,0.00074
2034.65857,0.00090
2032.72999,0.00107
2030.80140,0.00124
2028.87281,0.00127
2026.94423,0.00125
2025.01564,0.00134
2023.08705,0.00140
2021.15847,0.00141
2019.22988,0.00151
2017.30129,0.00166
2015.37271,0.00181
2013.44412,0.00202
2011.51554,0.00221
2009.58695,0.00234
2007.65836,0.00249
2005.72978,0.00263
2003.80119,0.00272
2001.87260,0.00278
1999.94402,0.00287
1998.01543,0.00290
1996.08685,0.00285
1994.15826,0.00284
1992.22967,0.00277
1990.30109,0.00266
1988.37250,0.00258
1986.44391,0.00248
1984.51533,0.00238
1982.58674,0.00229
1980.65815,0.00223
1978.72957,0.00216
1976.80098,0.00206
1974.87240,0.00204
1972.94381,0.00202
1971.01522,0.00190
1969.08664,0.00173
1967.15805,0.00152
1965.22946,0.00125
1963.30088,0.00100
1961.37229,0.00085
1959.44371,0.00071
1957.51512,0.00055
1955.58653,0.00045
1953.65795,0.00040
1951.72936,0.00038
1949.80077,0.00039
1947.87219,0.00035
1945.94360,0.00031
1944.01501,0.00026
1942.08643,0.00007
1940.15784,-0.00006
1938.22926,-0.00008
1936.30067,-0.00014
1934.37208,-0.00012
1932.44350,-0.00010
1930.51491,-0.00017
1928.58632,-0.00018
1926.65774,-0.00011
1924.72915,0.00000
1922.80056,-0.00005
1920.87198,0.00004
1918.94339,0.00028
1917.01481,0.00036
1915.08622,0.00058
1913.15763,0.00104
1911.22905,0.00152
1909.30046,0.00198
1907.37187,0.00241
1905.44329,0.00300
1903.51470,0.00356
1901.58612,0.00412
1899.65753,0.00474
1897.72894,0.00527
1895.80036,0.00584
1893.87177,0.00640
1891.94318,0.00697
1890.01460,0.00729
1888.08601,0.00748
1886.15742,0.00789
1884.22884,0.00808
1882.30025,0.00818
1880.37167,0.00833
1878.44308,0.00849
1876.51449,0.00869
1874.58591,0.00871
1872.65732,0.00887
1870.72873,0.00900
1868.80015,0.00867
1866.87156,0.00815
1864.94298,0.00784
1863.01439,0.00749
1861.08580,0.00686
1859.15722,0.00621
1857.22863,0.00540
1855.30004,0.00453
1853.37146,0.00361
1851.44287,0.00283
1849.51428,0.00220
1847.58570,0.00166
1845.65711,0.00141
1843.72853,0.00062
1841.79994,0.00000
1839.87135,-0.00019
1837.94277,-0.00053
1836.01418,-0.00066
1834.08559,-0.00074
1832.15701,-0.00063
1830.22842,-0.00070
1828.29984,-0.00088
1826.37125,-0.00055
1824.44266,-0.00047
1822.51408,-0.00033
1820.58549,0.00010
1818.65690,0.00051
1816.72832,0.00099
1814.79973,0.00152
1812.87114,0.00229
1810.94256,0.00303
1809.01397,0.00379
1807.08539,0.00469
1805.15680,0.00565
1803.22821,0.00679
1801.29963,0.00802
1799.37104,0.00927
1797.44245,0.01066
1795.51387,0.01239
1793.58528,0.01413
1791.65669,0.01542
1789.72811,0.01689
1787.79952,0.01890
1785.87094,0.02079
1783.94235,0.02252
1782.01376,0.02434
1780.08518,0.02619
1778.15659,0.02805
1776.22800,0.02995
1774.29942,0.03203
1772.37083,0.03357
1770.44225,0.03490
1768.51366,0.03677
1766.58507,0.03830
1764.65649,0.04029
1762.72790,0.04251
1760.79931,0.04419
1758.87073,0.04649
1756.94214,0.04897
1755.01355,0.05165
1753.08497,0.05491
1751.15638,0.05802
1749.22780,0.06112
1747.29921,0.06476
1745.37062,0.06875
1743.44204,0.07292
1741.51345,0.07728
1739.58486,0.08130
1737.65628,0.08511
1735.72769,0.08919
1733.79911,0.09193
1731.87052,0.09400
1729.94193,0.09707
1728.01335,0.09979
1726.08476,0.10246
1724.15617,0.10513
1722.22759,0.10776
1720.29900,0.11106
1718.37041,0.11380
1716.44183,0.11571
1714.51324,0.11786
1712.58466,0.12034
1710.65607,0.12265
1708.72748,0.12476
1706.79890,0.12698
1704.87031,0.12881
1702.94172,0.13148
1701.01314,0.13424
1699.08455,0.13588
1697.15596,0.13887
1695.22738,0.14143
1693.29879,0.14358
1691.37021,0.14702
1689.44162,0.14966
1687.51303,0.15269
1685.58445,0.15596
1683.65586,0.15765
1681.72727,0.16010
1679.79869,0.16310
1677.87010,0.16608
1675.94152,0.16864
1674.01293,0.17049
1672.08434,0.17296
1670.15576,0.17517
1668.22717,0.17657
1666.29858,0.17829
1664.37000,0.18020
1662.44141,0.18128
1660.51282,0.18204
1658.58424,0.18283
1656.65565,0.18376
1654.72707,0.18515
1652.79848,0.18380
1650.86989,0.18220
1648.94131,0.18319
1647.01272,0.18311
1645.08413,0.18198
1643.15555,0.18170
1641.22696,0.18188
1639.29838,0.18214
1637.36979,0.18252
1635.44120,0.18182
1633.51262,0.18070
1631.58403,0.18069
1629.65544,0.18020
1627.72686,0.17899
1625.79827,0.17735
1623.86968,0.17524
1621.94110,0.17265
1620.01251,0.17069
1618.08393,0.16917
1616.15534,0.16598
1614.22675,0.16342
1612.29817,0.16177
1610.36958,0.15982
1608.44099,0.15794
1606.51241,0.15603
1604.58382,0.15435
1602.65524,0.15255
1600.72665,0.15091
1598.79806,0.14930
1596.86948,0.14766
1594.94089,0.14604
1593.01230,0.14429
1591.08372,0.14266
1589.15513,0.14089
1587.22654,0.13919
1585.29796,0.13734
1583.36937,0.13565
1581.44079,0.13396
1579.51220,0.13251
1577.58361,0.13162
1575.65503,0.12965
1573.72644,0.12826
1571.79785,0.12827
1569.86927,0.12768
1567.94068,0.12683
1566.01209,0.12679
1564.08351,0.12696
1562.15492,0.12772
1560.22634,0.12837
1558.29775,0.12701
1556.36916,0.12679
1554.44058,0.12755
1552.51199,0.12765
1550.58340,0.12807
1548.65482,0.12811
1546.72623,0.12816
1544.79765,0.12809
1542.86906,0.12788
1540.94047,0.12768
1539.01189,0.12578
1537.08330,0.12485
1535.15471,0.12483
1533.22613,0.12370
1531.29754,0.12241
1529.36895,0.12155
1527.44037,0.12058
1525.51178,0.11918
1523.58320,0.11832
1521.65461,0.11727
1519.72602,0.11608
1517.79744,0.11575
1515.86885,0.11457
1513.94026,0.11266
1512.01168,0.11040
1510.08309,0.10809
1508.15451,0.10599
1506.22592,0.10185
1504.29733,0.09753
1502.36875,0.09480
1500.44016,0.09177
1498.51157,0.08849
1496.58299,0.08487
1494.65440,0.08139
1492.72581,0.07916
1490.79723,0.07694
1488.86864,0.07450
1486.94006,0.07280
1485.01147,0.07176
1483.08288,0.07144
1481.15430,0.07162
1479.22571,0.07248
1477.29712,0.07443
1475.36854,0.07738
1473.43995,0.08147
1471.51137,0.08636
1469.58278,0.09175
1467.65419,0.09663
1465.72561,0.09923
1463.79702,0.10020
1461.86843,0.10102
1459.93985,0.10235
1458.01126,0.10343
1456.08267,0.10305
1454.15409,0.10298
1452.22550,0.10322
1450.29692,0.10313
1448.36833,0.10294
1446.43974,0.10237
1444.51116,0.10201
1442.58257,0.10174
1440.65398,0.10171
1438.72540,0.10207
1436.79681,0.10167
1434.86822,0.10109
1432.93964,0.10121
1431.01105,0.10134
1429.08247,0.10119
1427.15388,0.10133
1425.22529,0.10167
1423.29671,0.10195
1421.36812,0.10259
1419.43953,0.10292
1417.51095,0.10266
1415.58236,0.10277
1413.65378,0.10270
1411.72519,0.10242
1409.79660,0.10222
1407.86802,0.10211
1405.93943,0.10197
1404.01084,0.10120
1402.08226,0.10056
1400.15367,0.10000
1398.22508,0.09900
1396.29650,0.09814
1394.36791,0.09701
1392.43933,0.09587
1390.51074,0.09555
1388.58215,0.09532
1386.65357,0.09443
1384.72498,0.09372
1382.79639,0.09406
1380.86781,0.09500
1378.93922,0.09547
1377.01064,0.09525
1375.08205,0.09467
1373.15346,0.09348
1371.22488,0.09213
1369.29629,0.09091
1367.36770,0.08943
1365.43912,0.08795
1363.51053,0.08644
1361.58194,0.08492
1359.65336,0.08372
1357.72477,0.08284
1355.79619,0.08206
1353.86760,0.08132
1351.93901,0.08062
1350.01043,0.07979
1348.08184,0.07904
1346.15325,0.07842
1344.22467,0.07783
1342.29608,0.07744
1340.36750,0.07697
1338.43891,0.07635
1336.51032,0.07584
1334.58174,0.07545
1332.65315,0.07514
1330.72456,0.07489
1328.79598,0.07452
1326.86739,0.07414
1324.93880,0.07389
1323.01022,0.07353
1321.08163,0.07313
1319.15305,0.07284
1317.22446,0.07263
1315.29587,0.07239
1313.36729,0.07211
1311.43870,0.07186
1309.51011,0.07158
1307.58153,0.07139
1305.65294,0.07124
1303.72435,0.07110
1301.79577,0.07112
1299.86718,0.07120
1297.93860,0.07122
1296.01001,0.07134
1294.08142,0.07176
1292.15284,0.07241
1290.22425,0.07313
1288.29566,0.07405
1286.36708,0.07525
1284.43849,0.07647
1282.50991,0.07770
1280.58132,0.07920
1278.65273,0.08076
1276.72415,0.08238
1274.79556,0.08414
1272.86697,0.08603
1270.93839,0.08797
1269.00980,0.08997
1267.08121,0.09222
1265.15263,0.09473
1263.22404,0.09755
1261.29546,0.10068
1259.36687,0.10433
1257.43828,0.10857
1255.50970,0.11313
1253.58111,0.11828
1251.65252,0.12362
1249.72394,0.12889
1247.79535,0.13418
1245.86677,0.13946
1243.93818,0.14463
1242.00959,0.14916
1240.08101,0.15328
1238.15242,0.15723
1236.22383,0.16081
1234.29525,0.16407
1232.36666,0.16691
1230.43807,0.16957
1228.50949,0.17207
1226.58090,0.17441
1224.65232,0.17678
1222.72373,0.17899
1220.79514,0.18111
1218.86656,0.18333
1216.93797,0.18553
1215.00938,0.18772
1213.08080,0.18998
1211.15221,0.19204
1209.22363,0.19402
1207.29504,0.19610
1205.36645,0.19819
1203.43787,0.20006
1201.50928,0.20169
1199.58069,0.20353
1197.65211,0.20522
1195.72352,0.20666
1193.79493,0.20821
1191.86635,0.20980
1189.93776,0.21156
1188.00918,0.21314
1186.08059,0.21446
1184.15200,0.21621
1182.22342,0.21830
1180.29483,0.22026
1178.36624,0.22218
1176.43766,0.22445
1174.50907,0.22719
1172.58048,0.22997
1170.65190,0.23255
1168.72331,0.23532
1166.79473,0.23821
1164.86614,0.24104
1162.93755,0.24363
1161.00897,0.24521
1159.08038,0.24607
1157.15179,0.24697
1155.22321,0.24824
1153.29462,0.24973
1151.36604,0.25129
1149.43745,0.25308
1147.50886,0.25515
1145.58028,0.25763
1143.65169,0.26020
1141.72310,0.26286
1139.79452,0.26584
1137.86593,0.26903
1135.93734,0.27268
1134.00876,0.27660
1132.08017,0.28062
1130.15159,0.28466
1128.22300,0.28915
1126.29441,0.29454
1124.36583,0.29986
1122.43724,0.30497
1120.50865,0.31022
1118.58007,0.31578
1116.65148,0.32204
1114.72290,0.32863
1112.79431,0.33501
1110.86572,0.34137
1108.93714,0.34770
1107.00855,0.35312
1105.07996,0.35791
1103.15138,0.36216
1101.22279,0.36505
1099.29420,0.36722
1097.36562,0.36844
1095.43703,0.36896
1093.50845,0.36983
1091.57986,0.37018
1089.65127,0.36946
1087.72269,0.36848
1085.79410,0.36754
1083.86551,0.36617
1081.93693,0.36474
1080.00834,0.36340
1078.07976,0.36163
1076.15117,0.35972
1074.22258,0.35812
1072.29400,0.35670
1070.36541,0.35509
1068.43682,0.35401
1066.50824,0.35334
1064.57965,0.35244
1062.65106,0.35129
1060.72248,0.34977
1058.79389,0.34792
1056.86531,0.34550
1054.93672,0.34340
1053.00813,0.34179
1051.07955,0.33996
1049.15096,0.33866
1047.22237,0.33815
1045.29379,0.33849
1043.36520,0.33949
1041.43661,0.34110
1039.50803,0.34292
1037.57944,0.34394
1035.65086,0.34455
1033.72227,0.34484
1031.79368,0.34422
1029.86510,0.34229
1027.93651,0.33945
1026.00792,0.33660
1024.07934,0.33381
1022.15075,0.33074
1020.22217,0.32709
1018.29358,0.32359
1016.36499,0.32055
1014.43641,0.31725
1012.50782,0.31387
1010.57923,0.31057
1008.65065,0.30712
1006.72206,0.30314
1004.79347,0.29891
1002.86489,0.29452
1000.93630,0.28935
999.00772,0.28381
997.07913,0.27840
995.15054,0.27306
993.22196,0.26749
991.29337,0.26160
989.36478,0.25559
987.43620,0.24901
985.50761,0.24193
983.57903,0.23458
981.65044,0.22682
979.72185,0.21861
977.79327,0.20975
975.86468,0.20074
973.93609,0.19183
972.00751,0.18289
970.07892,0.17416
968.15033,0.16575
966.22175,0.15788
964.29316,0.15085
962.36458,0.14459
960.43599,0.13872
958.50740,0.13362
956.57882,0.12937
954.65023,0.12519
952.72164,0.12137
950.79306,0.11828
948.86447,0.11578
946.93589,0.11372
945.00730,0.11203
943.07871,0.11063
941.15013,0.10908
939.22154,0.10754
937.29295,0.10631
935.36437,0.10513
933.43578,0.10381
931.50719,0.10264
929.57861,0.10168
927.65002,0.10068
925.72144,0.10009
923.79285,0.09966
921.86426,0.09896
919.93568,0.09845
918.00709,0.09824
916.07850,0.09806
914.14992,0.09714
912.22133,0.09521
910.29274,0.09242
908.36416,0.08847
906.43557,0.08357
904.50699,0.07818
902.57840,0.07257
900.64981,0.06676
898.72123,0.06121
896.79264,0.05651
894.86405,0.05217
892.93547,0.04807
891.00688,0.04439
889.07830,0.04083
887.14971,0.03741
885.22112,0.03437
883.29254,0.03163
881.36395,0.02922
879.43536,0.02670
877.50678,0.02366
875.57819,0.02062
873.64960,0.01782
871.72102,0.01493
869.79243,0.01214
867.86385,0.00986
865.93526,0.00777
864.00667,0.00560
862.07809,0.00386
860.14950,0.00248
858.22091,0.00142
856.29233,0.00062
854.36374,0.00000
852.43516,-0.00019
850.50657,0.00008
848.57798,0.00083
846.64940,0.00207
844.72081,0.00373
842.79222,0.00607
840.86364,0.00903
838.93505,0.01230
837.00646,0.01557
835.07788,0.01893
833.14929,0.02214
831.22071,0.02471
829.29212,0.02648
827.36353,0.02765
825.43495,0.02849
823.50636,0.02905
821.57777,0.02983
819.64919,0.03083
817.72060,0.03201
815.79201,0.03360
813.86343,0.03578
811.93484,0.03902
810.00626,0.04316
808.07767,0.04855
806.14908,0.05501
804.22050,0.06171
802.29191,0.06773
800.36332,0.07079
798.43474,0.06992
796.50615,0.06586
794.57757,0.06053
792.64898,0.05563
790.72039,0.05152
788.79181,0.04899
786.86322,0.04793
784.93463,0.04756
783.00605,0.04811
781.07746,0.04913
779.14887,0.04811
777.22029,0.04404
775.29170,0.03862
773.36312,0.03303
771.43453,0.02849
769.50594,0.02519
767.57736,0.02258
765.64877,0.02141
763.72018,0.02135
761.79160,0.02136
759.86301,0.02103
757.93443,0.02086
756.00584,0.02143
754.07725,0.02161
752.14867,0.02088
750.22008,0.02004
748.29149,0.01888
746.36291,0.01724
744.43432,0.01557
742.50573,0.01346
740.57715,0.01085
738.64856,0.00833
736.71998,0.00628
734.79139,0.00500
732.86280,0.00419
730.93422,0.00402
729.00563,0.00446
727.07704,0.00449
725.14846,0.00448
723.21987,0.00499
721.29129,0.00468
719.36270,0.00308
717.43411,0.00174
715.50553,0.00083
713.57694,0.00000
711.64835,-0.00004
709.71977,0.00060
707.79118,0.00185
705.86259,0.00374
703.93401,0.00601
702.00542,0.00913
700.07684,0.01326
698.14825,0.01773
696.21966,0.02081
694.29108,0.02049
692.36249,0.01756
690.43390,0.01386
688.50532,0.01076
686.57673,0.00930
684.64814,0.00826
682.71956,0.00692
680.79097,0.00542
678.86239,0.00425
676.93380,0.00428
675.00521,0.00403
673.07663,0.00309
671.14804,0.00220
669.21945,0.00127
667.29087,0.00087
665.36228,0.00070
663.43370,0.00007
661.50511,-0.00043
659.57652,0.00000
657.64794,0.00030
655.71935,0.00041
653.79076,0.00121
651.86218,0.00183
649.93359,0.00215
648.00500,0.00269
646.07642,0.00318
644.14783,0.00362
642.21925,0.00368
640.29066,0.00371
638.36207,0.00380
636.43349,0.00350
634.50490,0.00377
632.57631,0.00475
630.64773,0.00541
628.71914,0.00583
626.79056,0.00603
624.86197,0.00600
622.93338,0.00589
621.00480,0.00622
619.07621,0.00804
617.14762,0.01010
615.21904,0.01090
613.29045,0.01117
611.36186,0.01179
609.43328,0.01316
607.50469,0.01469
605.57611,0.01571
603.64752,0.01739
601.71893,0.01970
599.79035,0.02082
597.86176,0.02176
595.93317,0.02350
594.00459,0.02574
592.07600,0.02874
590.14742,0.03152
588.21883,0.03439
586.29024,0.03843
584.36166,0.04311
582.43307,0.04673
580.50448,0.04963
578.57590,0.05343
576.64731,0.05743
574.71872,0.06296
572.79014,0.06894
570.86155,0.07280
568.93297,0.07636
567.00438,0.08047
565.07579,0.08598
563.14721,0.09176
561.21862,0.09570
559.29003,0.09934
557.36145,0.10325
555.43286,0.10806
553.50427,0.11293
551.57569,0.11576
549.64710,0.11824
547.71852,0.12262
545.78993,0.12924
543.86134,0.13560
541.93276,0.13951
540.00417,0.14336
538.07558,0.14695
536.14700,0.14943
534.21841,0.15353
532.28983,0.15817
530.36124,0.16072
528.43265,0.16032
526.50407,0.15832
524.57548,0.15719
522.64689,0.15478
520.71831,0.14962
518.78972,0.14449
516.86113,0.14058
514.93255,0.13724
513.00396,0.13297
511.07538,0.12788
509.14679,0.12530
507.21820,0.12416
505.28962,0.12202
503.36103,0.12196
501.43244,0.12356
499.50386,0.12587
497.57527,0.13158
495.64669,0.13851
493.71810,0.14617
491.78951,0.15666
489.86093,0.16698
487.93234,0.17700
486.00375,0.19001
484.07517,0.20387
482.14658,0.21449
480.21799,0.22339
478.28941,0.23144
476.36082,0.23525
474.43224,0.23945
472.50365,0.24533
470.57506,0.24097
468.64648,0.22894
466.71789,0.22106
464.78930,0.21360
462.86072,0.20088
460.93213,0.18924
459.00355,0.17788
457.07496,0.16536
455.14637,0.15414
453.21779,0.14353
451.28920,0.13296
449.36061,0.12346
447.43203,0.12057
445.50344,0.11517
443.57485,0.10664
441.64627,0.10300
439.71768,0.09700
437.78910,0.09233
435.86051,0.08818
433.93192,0.08275
432.00334,0.08148
430.07475,0.08110
428.14616,0.07667
426.21758,0.07145
424.28899,0.06755
422.36040,0.05761
420.43182,0.05417
418.50323,0.05434
416.57465,0.04660
414.64606,0.04242
412.71747,0.03145
410.78889,0.01589
408.86030,0.00979
406.93171,0.00604
405.00313,0.00000
403.07454,0.00345
401.14596,0.00837
399.21737,0.00000
