3747.24323,0.00128
3745.31464,0.00392
3743.38605,0.00021
3741.45747,0.00000
3739.52888,0.00364
3737.60030,0.00527
3735.67171,0.00466
3733.74312,0.00354
3731.81454,0.00374
3729.88595,0.00450
3727.95736,0.00628
3726.02878,0.00726
3724.10019,0.00764
3722.17161,0.00934
3720.24302,0.01009
3718.31443,0.01178
3716.38585,0.01406
3714.45726,0.01713
3712.52867,0.01981
3710.60009,0.02024
3708.67150,0.02295
3706.74291,0.02613
3704.81433,0.03016
3702.88574,0.03381
3700.95716,0.03508
3699.02857,0.03727
3697.09998,0.03879
3695.17140,0.03966
3693.24281,0.04002
3691.31422,0.04096
3689.38564,0.04133
3687.45705,0.04007
3685.52846,0.04195
3683.59988,0.04525
3681.67129,0.04854
3679.74271,0.05143
3677.81412,0.05573
3675.88553,0.05892
3673.95695,0.06000
3672.02836,0.06581
3670.09977,0.06979
3668.17119,0.07183
3666.24260,0.07704
3664.31402,0.08168
3662.38543,0.08562
3660.45684,0.08911
3658.52826,0.09336
3656.59967,0.09667
3654.67108,0.09849
3652.74250,0.10293
3650.81391,0.10655
3648.88532,0.10706
3646.95674,0.10792
3645.02815,0.11124
3643.09957,0.11512
3641.17098,0.11784
3639.24239,0.12044
3637.31381,0.12302
3635.38522,0.12584
3633.45663,0.12838
3631.52805,0.13154
3629.59946,0.13363
3627.67088,0.13233
3625.74229,0.13412
3623.81370,0.13671
3621.88512,0.13787
3619.95653,0.13756
3618.02794,0.13433
3616.09936,0.13316
3614.17077,0.13262
3612.24218,0.13108
3610.31360,0.13044
3608.38501,0.12905
3606.45643,0.12771
3604.52784,0.12771
3602.59925,0.12769
3600.67067,0.12688
3598.74208,0.12629
3596.81349,0.12606
3594.88491,0.12544
3592.95632,0.12490
3591.02774,0.12526
3589.09915,0.12581
3587.17056,0.12491
3585.24198,0.12438
3583.31339,0.12541
3581.38480,0.12627
3579.45622,0.12660
3577.52763,0.12701
3575.59904,0.12770
3573.67046,0.12840
3571.74187,0.12933
3569.81329,0.13078
3567.88470,0.13118
3565.95611,0.13064
3564.02753,0.13169
3562.09894,0.13334
3560.17035,0.13419
3558.24177,0.13504
3556.31318,0.13626
3554.38459,0.13752
3552.45601,0.13821
3550.52742,0.13899
3548.59884,0.14036
3546.67025,0.14115
3544.74166,0.14184
3542.81308,0.14291
3540.88449,0.14391
3538.95590,0.14513
3537.02732,0.14616
3535.09873,0.14683
3533.17015,0.14771
3531.24156,0.14881
3529.31297,0.14978
3527.38439,0.15063
3525.45580,0.15136
3523.52721,0.15187
3521.59863,0.15254
3519.67004,0.15354
3517.74145,0.15467
3515.81287,0.15578
3513.88428,0.15684
3511.95570,0.15788
3510.02711,0.15887
3508.09852,0.15965
3506.16994,0.16071
3504.24135,0.16193
3502.31276,0.16246
3500.38418,0.16300
3498.45559,0.16416
3496.52701,0.16523
3494.59842,0.16555
3492.66983,0.16598
3490.74125,0.16721
3488.81266,0.16820
3486.88407,0.16898
3484.95549,0.16988
3483.02690,0.17058
3481.09831,0.17112
3479.16973,0.17169
3477.24114,0.17264
3475.31256,0.17338
3473.38397,0.17379
3471.45538,0.17437
3469.52680,0.17528
3467.59821,0.17619
3465.66962,0.17672
3463.74104,0.17735
3461.81245,0.17795
3459.88386,0.17845
3457.95528,0.17909
3456.02669,0.17971
3454.09811,0.18030
3452.16952,0.18093
3450.24093,0.18170
3448.31235,0.18229
3446.38376,0.18279
3444.45517,0.18350
3442.52659,0.18408
3440.59800,0.18443
3438.66942,0.18508
3436.74083,0.18585
3434.81224,0.18619
3432.88366,0.18652
3430.95507,0.18673
3429.02648,0.18716
3427.09790,0.18787
3425.16931,0.18816
3423.24072,0.18859
3421.31214,0.18914
3419.38355,0.18949
3417.45497,0.18998
3415.52638,0.19054
3413.59779,0.19082
3411.66921,0.19104
3409.74062,0.19149
3407.81203,0.19182
3405.88345,0.19219
3403.95486,0.19242
3402.02628,0.19266
3400.09769,0.19321
3398.16910,0.19354
3396.24052,0.19369
3394.31193,0.19383
3392.38334,0.19407
3390.45476,0.19423
3388.52617,0.19426
3386.59758,0.19441
3384.66900,0.19476
3382.74041,0.19522
3380.81183,0.19537
3378.88324,0.19559
3376.95465,0.19577
3375.02607,0.19581
3373.09748,0.19619
3371.16889,0.19654
3369.24031,0.19684
3367.31172,0.19711
3365.38314,0.19751
3363.45455,0.19794
3361.52596,0.19783
3359.59738,0.19776
3357.66879,0.19798
3355.74020,0.19831
3353.81162,0.19869
3351.88303,0.19887
3349.95444,0.19893
3348.02586,0.19906
3346.09727,0.19934
3344.16869,0.19944
3342.24010,0.19921
3340.31151,0.19919
3338.38293,0.19942
3336.45434,0.19971
3334.52575,0.20009
3332.59717,0.20037
3330.66858,0.20052
3328.73999,0.20052
3326.81141,0.20039
3324.88282,0.20039
3322.95424,0.20053
3321.02565,0.20061
3319.09706,0.20049
3317.16848,0.20034
3315.23989,0.20017
3313.31130,0.20009
3311.38272,0.20039
3309.45413,0.20071
3307.52555,0.20070
3305.59696,0.20049
3303.66837,0.20042
3301.73979,0.20039
3299.81120,0.20019
3297.88261,0.19995
3295.95403,0.19961
3294.02544,0.19936
3292.09685,0.19925
3290.16827,0.19914
3288.23968,0.19898
3286.31110,0.19854
3284.38251,0.19805
3282.45392,0.19780
3280.52534,0.19762
3278.59675,0.19712
3276.66816,0.19621
3274.73958,0.19561
3272.81099,0.19510
3270.88241,0.19441
3268.95382,0.19374
3267.02523,0.19285
3265.09665,0.19210
3263.16806,0.19130
3261.23947,0.19031
3259.31089,0.18946
3257.38230,0.18850
3255.45371,0.18759
3253.52513,0.18674
3251.59654,0.18586
3249.66796,0.18490
3247.73937,0.18415
3245.81078,0.18362
3243.88220,0.18262
3241.95361,0.18178
3240.02502,0.18128
3238.09644,0.18049
3236.16785,0.17969
3234.23927,0.17905
3232.31068,0.17831
3230.38209,0.17745
3228.45351,0.17678
3226.52492,0.17600
3224.59633,0.17522
3222.66775,0.17480
3220.73916,0.17414
3218.81057,0.17343
3216.88199,0.17281
3214.95340,0.17198
3213.02482,0.17122
3211.09623,0.17063
3209.16764,0.16995
3207.23906,0.16915
3205.31047,0.16846
3203.38188,0.16791
3201.45330,0.16746
3199.52471,0.16685
3197.59612,0.16603
3195.66754,0.16518
3193.73895,0.16441
3191.81037,0.16380
3189.88178,0.16302
3187.95319,0.16219
3186.02461,0.16150
3184.09602,0.16064
3182.16743,0.15984
3180.23885,0.15902
3178.31026,0.15817
3176.38168,0.15762
3174.45309,0.15709
3172.52450,0.15634
3170.59592,0.15543
3168.66733,0.15444
3166.73874,0.15361
3164.81016,0.15307
3162.88157,0.15255
3160.95298,0.15181
3159.02440,0.15117
3157.09581,0.15055
3155.16723,0.14977
3153.23864,0.14914
3151.31005,0.14839
3149.38147,0.14754
3147.45288,0.14704
3145.52429,0.14656
3143.59571,0.14596
3141.66712,0.14538
3139.73854,0.14485
3137.80995,0.14431
3135.88136,0.14383
3133.95278,0.14357
3132.02419,0.14305
3130.09560,0.14223
3128.16702,0.14166
3126.23843,0.14130
3124.30984,0.14101
3122.38126,0.14072
3120.45267,0.14037
3118.52409,0.13977
3116.59550,0.13910
3114.66691,0.13881
3112.73833,0.13867
3110.80974,0.13823
3108.88115,0.13767
3106.95257,0.13739
3105.02398,0.13738
3103.09540,0.13723
3101.16681,0.13680
3099.23822,0.13648
3097.30964,0.13622
3095.38105,0.13582
3093.45246,0.13554
3091.52388,0.13539
3089.59529,0.13526
3087.66670,0.13515
3085.73812,0.13487
3083.80953,0.13446
3081.88095,0.13410
3079.95236,0.13369
3078.02377,0.13319
3076.09519,0.13280
3074.16660,0.13252
3072.23801,0.13217
3070.30943,0.13168
3068.38084,0.13118
3066.45225,0.13070
3064.52367,0.13014
3062.59508,0.12963
3060.66650,0.12914
3058.73791,0.12855
3056.80932,0.12785
3054.88074,0.12713
3052.95215,0.12664
3051.02356,0.12615
3049.09498,0.12550
3047.16639,0.12504
3045.23781,0.12464
3043.30922,0.12406
3041.38063,0.12349
3039.45205,0.12291
3037.52346,0.12238
3035.59487,0.12207
3033.66629,0.12173
3031.73770,0.12126
3029.80911,0.12082
3027.88053,0.12050
3025.95194,0.12029
3024.02336,0.12017
3022.09477,0.12000
3020.16618,0.11963
3018.23760,0.11921
3016.30901,0.11897
3014.38042,0.11893
3012.45184,0.11899
3010.52325,0.11904
3008.59467,0.11927
3006.66608,0.11967
3004.73749,0.12009
3002.80891,0.12066
3000.88032,0.12132
2998.95173,0.12195
2997.02315,0.12278
2995.09456,0.12369
2993.16597,0.12449
2991.23739,0.12549
2989.30880,0.12684
2987.38022,0.12833
2985.45163,0.12977
2983.52304,0.13118
2981.59446,0.13289
2979.66587,0.13482
2977.73728,0.13670
2975.80870,0.13851
2973.88011,0.14018
2971.95153,0.14206
2970.02294,0.14412
2968.09435,0.14612
2966.16577,0.14819
2964.23718,0.15022
2962.30859,0.15208
2960.38001,0.15395
2958.45142,0.15589
2956.52283,0.15773
2954.59425,0.15969
2952.66566,0.16166
2950.73708,0.16333
2948.80849,0.16526
2946.87990,0.16748
2944.95132,0.17016
2943.02273,0.17364
2941.09414,0.17742
2939.16556,0.18144
2937.23697,0.18567
2935.30838,0.18977
2933.37980,0.19367
2931.45121,0.19731
2929.52263,0.20073
2927.59404,0.20375
2925.66545,0.20608
2923.73687,0.20789
2921.80828,0.20909
2919.87969,0.20922
2917.95111,0.20703
2916.02252,0.20087
2914.09394,0.19203
2912.16535,0.18368
2910.23676,0.17701
2908.30818,0.17191
2906.37959,0.16799
2904.45100,0.16467
2902.52242,0.16171
2900.59383,0.15906
2898.66524,0.15669
2896.73666,0.15424
2894.80807,0.15170
2892.87949,0.14941
2890.95090,0.14709
2889.02231,0.14470
2887.09373,0.14275
2885.16514,0.14108
2883.23655,0.13943
2881.30797,0.13827
2879.37938,0.13769
2877.45080,0.13727
2875.52221,0.13700
2873.59362,0.13705
2871.66504,0.13727
2869.73645,0.13734
2867.80786,0.13744
2865.87928,0.13822
2863.95069,0.13989
2862.02210,0.14258
2860.09352,0.14667
2858.16493,0.15199
2856.23635,0.15748
2854.30776,0.16142
2852.37917,0.16239
2850.45059,0.15982
2848.52200,0.15344
2846.59341,0.14447
2844.66483,0.13505
2842.73624,0.12648
2840.80766,0.11937
2838.87907,0.11362
2836.95048,0.10884
2835.02190,0.10494
2833.09331,0.10180
2831.16472,0.09903
2829.23614,0.09656
2827.30755,0.09446
2825.37896,0.09262
2823.45038,0.09105
2821.52179,0.08951
2819.59321,0.08793
2817.66462,0.08664
2815.73603,0.08552
2813.80745,0.08444
2811.87886,0.08339
2809.95027,0.08231
2808.02169,0.08138
2806.09310,0.08050
2804.16451,0.07963
2802.23593,0.07887
2800.30734,0.07809
2798.37876,0.07730
2796.45017,0.07660
2794.52158,0.07594
2792.59300,0.07516
2790.66441,0.07430
2788.73582,0.07370
2786.80724,0.07323
2784.87865,0.07265
2782.95007,0.07205
2781.02148,0.07148
2779.09289,0.07095
2777.16431,0.07044
2775.23572,0.06997
2773.30713,0.06958
2771.37855,0.06905
2769.44996,0.06846
2767.52137,0.06811
2765.59279,0.06777
2763.66420,0.06734
2761.73562,0.06692
2759.80703,0.06657
2757.87844,0.06620
2755.94986,0.06576
2754.02127,0.06542
2752.09268,0.06518
2750.16410,0.06486
2748.23551,0.06446
2746.30693,0.06417
2744.37834,0.06406
2742.44975,0.06376
2740.52117,0.06328
2738.59258,0.06296
2736.66399,0.06270
2734.73541,0.06248
2732.80682,0.06223
2730.87823,0.06174
2728.94965,0.06135
2727.02106,0.06110
2725.09248,0.06067
2723.16389,0.06028
2721.23530,0.05989
2719.30672,0.05941
2717.37813,0.05911
2715.44954,0.05882
2713.52096,0.05845
2711.59237,0.05811
2709.66379,0.05770
2707.73520,0.05729
2705.80661,0.05686
2703.87803,0.05644
2701.94944,0.05613
2700.02085,0.05585
2698.09227,0.05562
2696.16368,0.05540
2694.23509,0.05504
2692.30651,0.05466
2690.37792,0.05437
2688.44934,0.05404
2686.52075,0.05379
2684.59216,0.05363
2682.66358,0.05334
2680.73499,0.05299
2678.80640,0.05267
2676.87782,0.05224
2674.94923,0.05191
2673.02064,0.05172
2671.09206,0.05137
2669.16347,0.05100
2667.23489,0.05068
2665.30630,0.05031
2663.37771,0.05005
2661.44913,0.04973
2659.52054,0.04946
2657.59195,0.04928
2655.66337,0.04884
2653.73478,0.04838
2651.80620,0.04806
2649.87761,0.04780
2647.94902,0.04755
2646.02044,0.04734
2644.09185,0.04716
2642.16326,0.04692
2640.23468,0.04670
2638.30609,0.04637
2636.37750,0.04593
2634.44892,0.04560
2632.52033,0.04533
2630.59175,0.04503
2628.66316,0.04474
2626.73457,0.04446
2624.80599,0.04417
2622.87740,0.04405
2620.94881,0.04381
2619.02023,0.04332
2617.09164,0.04299
2615.16306,0.04274
2613.23447,0.04256
2611.30588,0.04232
2609.37730,0.04189
2607.44871,0.04142
2605.52012,0.04109
2603.59154,0.04087
2601.66295,0.04061
2599.73436,0.04036
2597.80578,0.04011
2595.87719,0.03980
2593.94861,0.03946
2592.02002,0.03904
2590.09143,0.03869
2588.16285,0.03852
2586.23426,0.03840
2584.30567,0.03816
2582.37709,0.03797
2580.44850,0.03768
2578.51991,0.03724
2576.59133,0.03692
2574.66274,0.03653
2572.73416,0.03628
2570.80557,0.03615
2568.87698,0.03590
2566.94840,0.03565
2565.01981,0.03542
2563.09122,0.03517
2561.16264,0.03485
2559.23405,0.03466
2557.30547,0.03449
2555.37688,0.03423
2553.44829,0.03404
2551.51971,0.03386
2549.59112,0.03366
2547.66253,0.03338
2545.73395,0.03318
2543.80536,0.03299
2541.87677,0.03274
2539.94819,0.03259
2538.01960,0.03235
2536.09102,0.03214
2534.16243,0.03202
2532.23384,0.03178
2530.30526,0.03151
2528.37667,0.03131
2526.44808,0.03102
2524.51950,0.03063
2522.59091,0.03044
2520.66233,0.03027
2518.73374,0.02995
2516.80515,0.02973
2514.87657,0.02955
2512.94798,0.02932
2511.01939,0.02912
2509.09081,0.02893
2507.16222,0.02861
2505.23363,0.02818
2503.30505,0.02790
2501.37646,0.02775
2499.44788,0.02752
2497.51929,0.02729
2495.59070,0.02710
2493.66212,0.02682
2491.73353,0.02649
2489.80494,0.02624
2487.87636,0.02603
2485.94777,0.02574
2484.01919,0.02548
2482.09060,0.02520
2480.16201,0.02487
2478.23343,0.02463
2476.30484,0.02437
2474.37625,0.02405
2472.44767,0.02373
2470.51908,0.02352
2468.59049,0.02343
2466.66191,0.02314
2464.73332,0.02269
2462.80474,0.02241
2460.87615,0.02233
2458.94756,0.02213
2457.01898,0.02183
2455.09039,0.02155
2453.16180,0.02125
2451.23322,0.02093
2449.30463,0.02058
2447.37604,0.02034
2445.44746,0.02021
2443.51887,0.02001
2441.59029,0.01966
2439.66170,0.01918
2437.73311,0.01894
2435.80453,0.01883
2433.87594,0.01863
2431.94735,0.01834
2430.01877,0.01798
2428.09018,0.01777
2426.16160,0.01756
2424.23301,0.01731
2422.30442,0.01706
2420.37584,0.01682
2418.44725,0.01663
2416.51866,0.01633
2414.59008,0.01606
2412.66149,0.01585
2410.73290,0.01556
2408.80432,0.01520
2406.87573,0.01490
2404.94715,0.01480
2403.01856,0.01456
2401.08997,0.01428
2399.16139,0.01411
2397.23280,0.01389
2395.30421,0.01363
2393.37563,0.01342
2391.44704,0.01323
2389.51846,0.01302
2387.58987,0.01281
2385.66128,0.01256
2383.73270,0.01242
2381.80411,0.01233
2379.87552,0.01220
2377.94694,0.01216
2376.01835,0.01207
2374.08976,0.01200
2372.16118,0.01212
2370.23259,0.01220
2368.30401,0.01207
2366.37542,0.01191
2364.44683,0.01197
2362.51825,0.01189
2360.58966,0.01155
2358.66107,0.01119
2356.73249,0.01084
2354.80390,0.01042
2352.87532,0.00989
2350.94673,0.00950
2349.01814,0.00947
2347.08956,0.00960
2345.16097,0.00971
2343.23238,0.00981
2341.30380,0.00989
2339.37521,0.00991
2337.44662,0.00971
2335.51804,0.00935
2333.58945,0.00914
2331.66087,0.00891
2329.73228,0.00855
2327.80369,0.00825
2325.87511,0.00809
2323.94652,0.00797
2322.01793,0.00775
2320.08935,0.00758
2318.16076,0.00742
2316.23217,0.00721
2314.30359,0.00695
2312.37500,0.00677
2310.44642,0.00667
2308.51783,0.00641
2306.58924,0.00618
2304.66066,0.00604
2302.73207,0.00586
2300.80348,0.00564
2298.87490,0.00545
2296.94631,0.00535
2295.01773,0.00519
2293.08914,0.00513
2291.16055,0.00508
2289.23197,0.00498
2287.30338,0.00490
2285.37479,0.00462
2283.44621,0.00444
2281.51762,0.00446
2279.58903,0.00435
2277.66045,0.00421
2275.73186,0.00417
2273.80328,0.00408
2271.87469,0.00389
2269.94610,0.00365
2268.01752,0.00353
2266.08893,0.00353
2264.16034,0.00335
2262.23176,0.00315
2260.30317,0.00314
2258.37459,0.00307
2256.44600,0.00303
2254.51741,0.00306
2252.58883,0.00312
2250.66024,0.00315
2248.73165,0.00300
2246.80307,0.00285
2244.87448,0.00270
2242.94589,0.00253
2241.01731,0.00249
2239.08872,0.00247
2237.16014,0.00234
2235.23155,0.00215
2233.30296,0.00205
2231.37438,0.00205
2229.44579,0.00192
2227.51720,0.00174
2225.58862,0.00170
2223.66003,0.00173
2221.73145,0.00172
2219.80286,0.00161
2217.87427,0.00153
2215.94569,0.00146
2214.01710,0.00133
2212.08851,0.00124
2210.15993,0.00112
2208.23134,0.00099
2206.30275,0.00085
2204.37417,0.00072
2202.44558,0.00073
2200.51700,0.00077
2198.58841,0.00076
2196.65982,0.00067
2194.73124,0.00058
2192.80265,0.00057
2190.87406,0.00049
2188.94548,0.00038
2187.01689,0.00045
2185.08830,0.00060
2183.15972,0.00064
2181.23113,0.00059
2179.30255,0.00048
2177.37396,0.00036
2175.44537,0.00038
2173.51679,0.00037
2171.58820,0.00019
2169.65961,0.00009
2167.73103,0.00028
2165.80244,0.00048
2163.87386,0.00047
2161.94527,0.00039
2160.01668,0.00032
2158.08810,0.00036
2156.15951,0.00043
2154.23092,0.00041
2152.30234,0.00041
2150.37375,0.00041
2148.44516,0.00047
2146.51658,0.00050
2144.58799,0.00048
2142.65941,0.00045
2140.73082,0.00037
2138.80223,0.00032
2136.87365,0.00029
2134.94506,0.00036
2133.01647,0.00042
2131.08789,0.00034
2129.15930,0.00026
2127.23072,0.00018
2125.30213,0.00016
2123.37354,0.00020
2121.44496,0.00023
2119.51637,0.00021
2117.58778,0.00014
2115.65920,0.00014
2113.73061,0.00020
2111.80202,0.00022
2109.87344,0.00014
2107.94485,0.00000
2106.01627,-0.00001
2104.08768,0.00009
2102.15909,0.00006
2100.23051,0.00003
2098.30192,0.00015
2096.37333,0.00014
2094.44475,0.00008
2092.51616,0.00007
2090.58758,0.00006
2088.65899,0.00009
2086.73040,0.00011
2084.80182,0.00017
2082.87323,0.00019
2080.94464,0.00022
2079.01606,0.00027
2077.08747,0.00027
2075.15888,0.00024
2073.23030,0.00019
2071.30171,0.00020
2069.37313,0.00018
2067.44454,0.00009
2065.51595,0.00000
2063.58737,0.00005
2061.65878,0.00030
2059.73019,0.00030
2057.80161,0.00023
2055.87302,0.00032
2053.94443,0.00036
2052.01585,0.00033
2050.08726,0.00026
2048.15868,0.00031
2046.23009,0.00051
2044.30150,0.00064
2042.37292,0.00076
2040.44433,0.00094
2038.51574,0.00108
2036.58716,0.00127
2034.65857,0.00150
2032.72999,0.00157
2030.80140,0.00160
2028.87281,0.00162
2026.94423,0.00172
2025.01564,0.00187
2023.08705,0.00192
2021.15847,0.00190
2019.22988,0.00190
2017.30129,0.00191
2015.37271,0.00190
2013.44412,0.00205
2011.51554,0.00234
2009.58695,0.00261
2007.65836,0.00281
2005.72978,0.00293
2003.80119,0.00302
2001.87260,0.00295
1999.94402,0.00291
1998.01543,0.00289
1996.08685,0.00283
1994.15826,0.00288
1992.22967,0.00277
1990.30109,0.00270
1988.37250,0.00273
1986.44391,0.00260
1984.51533,0.00251
1982.58674,0.00242
1980.65815,0.00231
1978.72957,0.00215
1976.80098,0.00197
1974.87240,0.00186
1972.94381,0.00186
1971.01522,0.00189
1969.08664,0.00170
1967.15805,0.00140
1965.22946,0.00125
1963.30088,0.00127
1961.37229,0.00114
1959.44371,0.00090
1957.51512,0.00081
1955.58653,0.00073
1953.65795,0.00062
1951.72936,0.00051
1949.80077,0.00052
1947.87219,0.00053
1945.94360,0.00044
1944.01501,0.00044
1942.08643,0.00020
1940.15784,0.00001
1938.22926,0.00011
1936.30067,0.00004
1934.37208,-0.00001
1932.44350,-0.00001
1930.51491,0.00003
1928.58632,0.00001
1926.65774,-0.00002
1924.72915,0.00015
1922.80056,0.00000
1920.87198,0.00004
1918.94339,0.00038
1917.01481,0.00023
1915.08622,0.00054
1913.15763,0.00121
1911.22905,0.00162
1909.30046,0.00203
1907.37187,0.00246
1905.44329,0.00307
1903.51470,0.00365
1901.58612,0.00413
1899.65753,0.00458
1897.72894,0.00506
1895.80036,0.00556
1893.87177,0.00585
1891.94318,0.00649
1890.01460,0.00700
1888.08601,0.00705
1886.15742,0.00739
1884.22884,0.00756
1882.30025,0.00770
1880.37167,0.00785
1878.44308,0.00789
1876.51449,0.00811
1874.58591,0.00824
1872.65732,0.00849
1870.72873,0.00866
1868.80015,0.00820
1866.87156,0.00751
1864.94298,0.00737
1863.01439,0.00724
1861.08580,0.00663
1859.15722,0.00602
1857.22863,0.00527
1855.30004,0.00457
1853.37146,0.00381
1851.44287,0.00311
1849.51428,0.00247
1847.58570,0.00199
1845.65711,0.00187
1843.72853,0.00061
1841.79994,0.00000
1839.87135,0.00040
1837.94277,0.00031
1836.01418,0.00009
1834.08559,-0.00005
1832.15701,0.00039
1830.22842,0.00016
1828.29984,-0.00040
1826.37125,0.00012
1824.44266,0.00013
1822.51408,0.00033
1820.58549,0.00089
1818.65690,0.00126
1816.72832,0.00176
1814.79973,0.00223
1812.87114,0.00291
1810.94256,0.00346
1809.01397,0.00409
1807.08539,0.00506
1805.15680,0.00619
1803.22821,0.00736
1801.29963,0.00831
1799.37104,0.00926
1797.44245,0.01058
1795.51387,0.01234
1793.58528,0.01389
1791.65669,0.01474
1789.72811,0.01619
1787.79952,0.01852
1785.87094,0.02048
1783.94235,0.02207
1782.01376,0.02383
1780.08518,0.02545
1778.15659,0.02712
1776.22800,0.02909
1774.29942,0.03120
1772.37083,0.03216
1770.44225,0.03297
1768.51366,0.03501
1766.58507,0.03655
1764.65649,0.03868
1762.72790,0.04079
1760.79931,0.04204
1758.87073,0.04440
1756.94214,0.04659
1755.01355,0.04887
1753.08497,0.05188
1751.15638,0.05427
1749.22780,0.05663
1747.29921,0.05981
1745.37062,0.06354
1743.44204,0.06738
1741.51345,0.07121
1739.58486,0.07460
1737.65628,0.07821
1735.72769,0.08231
1733.79911,0.08404
1731.87052,0.08571
1729.94193,0.08921
1728.01335,0.09186
1726.08476,0.09477
1724.15617,0.09756
1722.22759,0.10042
1720.29900,0.10421
1718.37041,0.10706
1716.44183,0.10903
1714.51324,0.11152
1712.58466,0.11494
1710.65607,0.11820
1708.72748,0.12097
1706.79890,0.12368
1704.87031,0.12583
1702.94172,0.12932
1701.01314,0.13230
1699.08455,0.13367
1697.15596,0.13744
1695.22738,0.14003
1693.29879,0.14248
1691.37021,0.14647
1689.44162,0.14905
1687.51303,0.15232
1685.58445,0.15549
1683.65586,0.15612
1681.72727,0.15877
1679.79869,0.16224
1677.87010,0.16555
1675.94152,0.16808
1674.01293,0.16947
1672.08434,0.17220
1670.15576,0.17428
1668.22717,0.17516
1666.29858,0.17715
1664.37000,0.17929
1662.44141,0.18003
1660.51282,0.18079
1658.58424,0.18214
1656.65565,0.18326
1654.72707,0.18426
1652.79848,0.18100
1650.86989,0.17964
1648.94131,0.18212
1647.01272,0.18183
1645.08413,0.18032
1643.15555,0.18062
1641.22696,0.18112
1639.29838,0.18147
1637.36979,0.18179
1635.44120,0.18056
1633.51262,0.17968
1631.58403,0.18069
1629.65544,0.18039
1627.72686,0.17897
1625.79827,0.17746
1623.86968,0.17530
1621.94110,0.17243
1620.01251,0.17090
1618.08393,0.16985
1616.15534,0.16627
1614.22675,0.16438
1612.29817,0.16376
1610.36958,0.16241
1608.44099,0.16102
1606.51241,0.15947
1604.58382,0.15806
1602.65524,0.15627
1600.72665,0.15466
1598.79806,0.15311
1596.86948,0.15165
1594.94089,0.15015
1593.01230,0.14840
1591.08372,0.14694
1589.15513,0.14528
1587.22654,0.14385
1585.29796,0.14221
1583.36937,0.14057
1581.44079,0.13897
1579.51220,0.13772
1577.58361,0.13683
1575.65503,0.13410
1573.72644,0.13271
1571.79785,0.13319
1569.86927,0.13241
1567.94068,0.13137
1566.01209,0.13148
1564.08351,0.13156
1562.15492,0.13268
1560.22634,0.13352
1558.29775,0.13057
1556.36916,0.13082
1554.44058,0.13236
1552.51199,0.13261
1550.58340,0.13321
1548.65482,0.13333
1546.72623,0.13393
1544.79765,0.13394
1542.86906,0.13354
1540.94047,0.13327
1539.01189,0.13049
1537.08330,0.13065
1535.15471,0.13167
1533.22613,0.13036
1531.29754,0.12914
1529.36895,0.12896
1527.44037,0.12816
1525.51178,0.12663
1523.58320,0.12635
1521.65461,0.12554
1519.72602,0.12475
1517.79744,0.12521
1515.86885,0.12456
1513.94026,0.12363
1512.01168,0.12195
1510.08309,0.11972
1508.15451,0.11737
1506.22592,0.11184
1504.29733,0.10766
1502.36875,0.10591
1500.44016,0.10325
1498.51157,0.10002
1496.58299,0.09607
1494.65440,0.09241
1492.72581,0.09070
1490.79723,0.08857
1488.86864,0.08555
1486.94006,0.08382
1485.01147,0.08307
1483.08288,0.08286
1481.15430,0.08301
1479.22571,0.08391
1477.29712,0.08558
1475.36854,0.08774
1473.43995,0.09080
1471.51137,0.09463
1469.58278,0.09970
1467.65419,0.10477
1465.72561,0.10724
1463.79702,0.10805
1461.86843,0.10924
1459.93985,0.11085
1458.01126,0.11158
1456.08267,0.11066
1454.15409,0.11141
1452.22550,0.11236
1450.29692,0.11231
1448.36833,0.11199
1446.43974,0.11140
1444.51116,0.11142
1442.58257,0.11125
1440.65398,0.11106
1438.72540,0.11135
1436.79681,0.11047
1434.86822,0.10978
1432.93964,0.11026
1431.01105,0.11033
1429.08247,0.11006
1427.15388,0.11027
1425.22529,0.11053
1423.29671,0.11051
1421.36812,0.11085
1419.43953,0.11038
1417.51095,0.10930
1415.58236,0.10948
1413.65378,0.10943
1411.72519,0.10898
1409.79660,0.10832
1407.86802,0.10759
1405.93943,0.10698
1404.01084,0.10579
1402.08226,0.10509
1400.15367,0.10421
1398.22508,0.10280
1396.29650,0.10192
1394.36791,0.10072
1392.43933,0.09985
1390.51074,0.09969
1388.58215,0.09869
1386.65357,0.09629
1384.72498,0.09464
1382.79639,0.09555
1380.86781,0.09800
1378.93922,0.09971
1377.01064,0.09994
1375.08205,0.09935
1373.15346,0.09832
1371.22488,0.09754
1369.29629,0.09657
1367.36770,0.09493
1365.43912,0.09357
1363.51053,0.09191
1361.58194,0.09023
1359.65336,0.08929
1357.72477,0.08845
1355.79619,0.08764
1353.86760,0.08692
1351.93901,0.08636
1350.01043,0.08587
1348.08184,0.08549
1346.15325,0.08506
1344.22467,0.08457
1342.29608,0.08433
1340.36750,0.08393
1338.43891,0.08338
1336.51032,0.08297
1334.58174,0.08272
1332.65315,0.08262
1330.72456,0.08234
1328.79598,0.08206
1326.86739,0.08192
1324.93880,0.08176
1323.01022,0.08167
1321.08163,0.08154
1319.15305,0.08136
1317.22446,0.08119
1315.29587,0.08089
1313.36729,0.08065
1311.43870,0.08053
1309.51011,0.08022
1307.58153,0.07992
1305.65294,0.07985
1303.72435,0.07973
1301.79577,0.07953
1299.86718,0.07964
1297.93860,0.08004
1296.01001,0.08040
1294.08142,0.08069
1292.15284,0.08115
1290.22425,0.08192
1288.29566,0.08286
1286.36708,0.08393
1284.43849,0.08518
1282.50991,0.08652
1280.58132,0.08775
1278.65273,0.08889
1276.72415,0.09021
1274.79556,0.09168
1272.86697,0.09325
1270.93839,0.09501
1269.00980,0.09695
1267.08121,0.09905
1265.15263,0.10135
1263.22404,0.10401
1261.29546,0.10708
1259.36687,0.11045
1257.43828,0.11415
1255.50970,0.11814
1253.58111,0.12227
1251.65252,0.12665
1249.72394,0.13132
1247.79535,0.13580
1245.86677,0.13989
1243.93818,0.14398
1242.00959,0.14799
1240.08101,0.15159
1238.15242,0.15473
1236.22383,0.15762
1234.29525,0.16048
1232.36666,0.16297
1230.43807,0.16502
1228.50949,0.16709
1226.58090,0.16921
1224.65232,0.17121
1222.72373,0.17298
1220.79514,0.17469
1218.86656,0.17647
1216.93797,0.17830
1215.00938,0.18035
1213.08080,0.18241
1211.15221,0.18419
1209.22363,0.18585
1207.29504,0.18776
1205.36645,0.18981
1203.43787,0.19146
1201.50928,0.19264
1199.58069,0.19348
1197.65211,0.19464
1195.72352,0.19636
1193.79493,0.19788
1191.86635,0.19929
1189.93776,0.20077
1188.00918,0.20175
1186.08059,0.20258
1184.15200,0.20428
1182.22342,0.20642
1180.29483,0.20827
1178.36624,0.21046
1176.43766,0.21308
1174.50907,0.21579
1172.58048,0.21857
1170.65190,0.22136
1168.72331,0.22399
1166.79473,0.22659
1164.86614,0.22934
1162.93755,0.23168
1161.00897,0.23336
1159.08038,0.23461
1157.15179,0.23577
1155.22321,0.23700
1153.29462,0.23831
1151.36604,0.23985
1149.43745,0.24119
1147.50886,0.24250
1145.58028,0.24447
1143.65169,0.24699
1141.72310,0.24960
1139.79452,0.25233
1137.86593,0.25564
1135.93734,0.25908
1134.00876,0.26247
1132.08017,0.26588
1130.15159,0.26900
1128.22300,0.27296
1126.29441,0.27808
1124.36583,0.28290
1122.43724,0.28732
1120.50865,0.29221
1118.58007,0.29744
1116.65148,0.30285
1114.72290,0.30851
1112.79431,0.31409
1110.86572,0.31902
1108.93714,0.32367
1107.00855,0.32835
1105.07996,0.33255
1103.15138,0.33667
1101.22279,0.34032
1099.29420,0.34267
1097.36562,0.34414
1095.43703,0.34511
1093.50845,0.34577
1091.57986,0.34592
1089.65127,0.34623
1087.72269,0.34668
1085.79410,0.34614
1083.86551,0.34505
1081.93693,0.34418
1080.00834,0.34314
1078.07976,0.34148
1076.15117,0.33970
1074.22258,0.33827
1072.29400,0.33723
1070.36541,0.33641
1068.43682,0.33553
1066.50824,0.33459
1064.57965,0.33371
1062.65106,0.33303
1060.72248,0.33199
1058.79389,0.33033
1056.86531,0.32845
1054.93672,0.32628
1053.00813,0.32454
1051.07955,0.32310
1049.15096,0.32166
1047.22237,0.32116
1045.29379,0.32106
1043.36520,0.32178
1041.43661,0.32355
1039.50803,0.32473
1037.57944,0.32536
1035.65086,0.32562
1033.72227,0.32546
1031.79368,0.32430
1029.86510,0.32235
1027.93651,0.32053
1026.00792,0.31796
1024.07934,0.31508
1022.15075,0.31204
1020.22217,0.30859
1018.29358,0.30542
1016.36499,0.30245
1014.43641,0.29965
1012.50782,0.29642
1010.57923,0.29331
1008.65065,0.29044
1006.72206,0.28716
1004.79347,0.28341
1002.86489,0.27871
1000.93630,0.27439
999.00772,0.26994
997.07913,0.26456
995.15054,0.25971
993.22196,0.25477
991.29337,0.24937
989.36478,0.24381
987.43620,0.23805
985.50761,0.23185
983.57903,0.22526
981.65044,0.21843
979.72185,0.21062
977.79327,0.20225
975.86468,0.19373
973.93609,0.18525
972.00751,0.17701
970.07892,0.16868
968.15033,0.16053
966.22175,0.15287
964.29316,0.14593
962.36458,0.13963
960.43599,0.13399
958.50740,0.12877
956.57882,0.12385
954.65023,0.11991
952.72164,0.11647
950.79306,0.11350
948.86447,0.11120
946.93589,0.10873
945.00730,0.10639
943.07871,0.10476
941.15013,0.10352
939.22154,0.10218
937.29295,0.10086
935.36437,0.09983
933.43578,0.09872
931.50719,0.09752
929.57861,0.09646
927.65002,0.09557
925.72144,0.09485
923.79285,0.09434
921.86426,0.09398
919.93568,0.09371
918.00709,0.09344
916.07850,0.09281
914.14992,0.09175
912.22133,0.09021
910.29274,0.08769
908.36416,0.08431
906.43557,0.08003
904.50699,0.07486
902.57840,0.06961
900.64981,0.06449
898.72123,0.05964
896.79264,0.05539
894.86405,0.05114
892.93547,0.04688
891.00688,0.04320
889.07830,0.03981
887.14971,0.03664
885.22112,0.03373
883.29254,0.03084
881.36395,0.02818
879.43536,0.02588
877.50678,0.02367
875.57819,0.02093
873.64960,0.01773
871.72102,0.01474
869.79243,0.01184
867.86385,0.00925
865.93526,0.00723
864.00667,0.00536
862.07809,0.00369
860.14950,0.00238
858.22091,0.00127
856.29233,0.00039
854.36374,0.00000
852.43516,-0.00005
850.50657,-0.00005
848.57798,0.00053
846.64940,0.00182
844.72081,0.00323
842.79222,0.00517
840.86364,0.00778
838.93505,0.01052
837.00646,0.01373
835.07788,0.01695
833.14929,0.01933
831.22071,0.02152
829.29212,0.02368
827.36353,0.02526
825.43495,0.02610
823.50636,0.02691
821.57777,0.02807
819.64919,0.02907
817.72060,0.03035
815.79201,0.03171
813.86343,0.03321
811.93484,0.03600
810.00626,0.04032
808.07767,0.04623
806.14908,0.05326
804.22050,0.05996
802.29191,0.06506
800.36332,0.06757
798.43474,0.06695
796.50615,0.06379
794.57757,0.05940
792.64898,0.05494
790.72039,0.05119
788.79181,0.04849
786.86322,0.04719
784.93463,0.04742
783.00605,0.04858
781.07746,0.04960
779.14887,0.04846
777.22029,0.04441
775.29170,0.03900
773.36312,0.03376
771.43453,0.02940
769.50594,0.02622
767.57736,0.02408
765.64877,0.02296
763.72018,0.02280
761.79160,0.02269
759.86301,0.02219
757.93443,0.02189
756.00584,0.02184
754.07725,0.02188
752.14867,0.02143
750.22008,0.02034
748.29149,0.01936
746.36291,0.01796
744.43432,0.01585
742.50573,0.01359
740.57715,0.01149
738.64856,0.00975
736.71998,0.00800
734.79139,0.00676
732.86280,0.00640
730.93422,0.00596
729.00563,0.00541
727.07704,0.00498
725.14846,0.00502
723.21987,0.00532
721.29129,0.00508
719.36270,0.00469
717.43411,0.00373
715.50553,0.00242
713.57694,0.00222
711.64835,0.00280
709.71977,0.00341
707.79118,0.00431
705.86259,0.00594
703.93401,0.00809
702.00542,0.01070
700.07684,0.01457
698.14825,0.01953
696.21966,0.02295
694.29108,0.02266
692.36249,0.01940
690.43390,0.01520
688.50532,0.01219
686.57673,0.01065
684.64814,0.00937
682.71956,0.00810
680.79097,0.00674
678.86239,0.00601
676.93380,0.00605
675.00521,0.00553
673.07663,0.00418
671.14804,0.00339
669.21945,0.00370
667.29087,0.00339
665.36228,0.00243
663.43370,0.00186
661.50511,0.00077
659.57652,0.00000
657.64794,0.00078
655.71935,0.00218
653.79076,0.00317
651.86218,0.00371
649.93359,0.00402
648.00500,0.00398
646.07642,0.00359
644.14783,0.00350
642.21925,0.00350
640.29066,0.00384
638.36207,0.00477
636.43349,0.00533
634.50490,0.00616
632.57631,0.00759
630.64773,0.00814
628.71914,0.00763
626.79056,0.00724
624.86197,0.00773
622.93338,0.00881
621.00480,0.00995
619.07621,0.01070
617.14762,0.01112
615.21904,0.01128
613.29045,0.01137
611.36186,0.01240
609.43328,0.01376
607.50469,0.01427
605.57611,0.01499
603.64752,0.01678
601.71893,0.01904
599.79035,0.02140
597.86176,0.02367
595.93317,0.02576
594.00459,0.02770
592.07600,0.02996
590.14742,0.03338
588.21883,0.03612
586.29024,0.03761
584.36166,0.04061
582.43307,0.04489
580.50448,0.04924
578.57590,0.05336
576.64731,0.05650
574.71872,0.05971
572.79014,0.06445
570.86155,0.06901
568.93297,0.07263
567.00438,0.07772
565.07579,0.08363
563.14721,0.08788
561.21862,0.09124
559.29003,0.09608
557.36145,0.10129
555.43286,0.10429
553.50427,0.10717
551.57569,0.11164
549.64710,0.11647
547.71852,0.12062
545.78993,0.12403
543.86134,0.12754
541.93276,0.13136
540.00417,0.13553
538.07558,0.14056
536.14700,0.14610
534.21841,0.15075
532.28983,0.15424
530.36124,0.15570
528.43265,0.15593
526.50407,0.15646
524.57548,0.15506
522.64689,0.15207
520.71831,0.14818
518.78972,0.14417
516.86113,0.13906
514.93255,0.13290
513.00396,0.12954
511.07538,0.12655
509.14679,0.12373
507.21820,0.12106
505.28962,0.11846
503.36103,0.11908
501.43244,0.12058
499.50386,0.12367
497.57527,0.12978
495.64669,0.13707
493.71810,0.14411
491.78951,0.15207
489.86093,0.16266
487.93234,0.17182
486.00375,0.18132
484.07517,0.19509
482.14658,0.20855
480.21799,0.21699
478.28941,0.22503
476.36082,0.23393
474.43224,0.23634
472.50365,0.23513
470.57506,0.23122
468.64648,0.22451
466.71789,0.21910
464.78930,0.21222
462.86072,0.20148
460.93213,0.18931
459.00355,0.17683
457.07496,0.16468
455.14637,0.15358
453.21779,0.13948
451.28920,0.13050
449.36061,0.12831
447.43203,0.12056
445.50344,0.11299
443.57485,0.10762
441.64627,0.10130
439.71768,0.09738
437.78910,0.09165
435.86051,0.08917
433.93192,0.08682
432.00334,0.07741
430.07475,0.07429
428.14616,0.07424
426.21758,0.07013
424.28899,0.06319
422.36040,0.05259
420.43182,0.04628
418.50323,0.04440
416.57465,0.04531
414.64606,0.03839
412.71747,0.02125
410.78889,0.00979
408.86030,0.00471
406.93171,0.00352
405.00313,0.00000
403.07454,-0.00068
401.14596,0.00375
399.21737,0.00000
