3747.24323,0.00075
3745.31464,0.00330
3743.38605,0.00031
3741.45747,0.00000
3739.52888,0.00343
3737.60030,0.00468
3735.67171,0.00437
3733.74312,0.00414
3731.81454,0.00441
3729.88595,0.00468
3727.95736,0.00623
3726.02878,0.00730
3724.10019,0.00782
3722.17161,0.00963
3720.24302,0.01089
3718.31443,0.01303
3716.38585,0.01554
3714.45726,0.01879
3712.52867,0.02203
3710.60009,0.02364
3708.67150,0.02691
3706.74291,0.03028
3704.81433,0.03432
3702.88574,0.03834
3700.95716,0.04037
3699.02857,0.04264
3697.09998,0.04406
3695.17140,0.04501
3693.24281,0.04559
3691.31422,0.04698
3689.38564,0.04803
3687.45705,0.04723
3685.52846,0.04895
3683.59988,0.05254
3681.67129,0.05623
3679.74271,0.05987
3677.81412,0.06496
3675.88553,0.06875
3673.95695,0.07046
3672.02836,0.07645
3670.09977,0.08137
3668.17119,0.08427
3666.24260,0.08969
3664.31402,0.09474
3662.38543,0.09968
3660.45684,0.10427
3658.52826,0.10910
3656.59967,0.11312
3654.67108,0.11569
3652.74250,0.12052
3650.81391,0.12493
3648.88532,0.12683
3646.95674,0.12852
3645.02815,0.13185
3643.09957,0.13583
3641.17098,0.13890
3639.24239,0.14178
3637.31381,0.14462
3635.38522,0.14799
3633.45663,0.15121
3631.52805,0.15511
3629.59946,0.15814
3627.67088,0.15762
3625.74229,0.15900
3623.81370,0.16158
3621.88512,0.16288
3619.95653,0.16294
3618.02794,0.16053
3616.09936,0.15909
3614.17077,0.15832
3612.24218,0.15691
3610.31360,0.15605
3608.38501,0.15461
3606.45643,0.15334
3604.52784,0.15299
3602.59925,0.15250
3600.67067,0.15153
3598.74208,0.15073
3596.81349,0.15039
3594.88491,0.14990
3592.95632,0.14937
3591.02774,0.14966
3589.09915,0.15018
3587.17056,0.14951
3585.24198,0.14880
3583.31339,0.14929
3581.38480,0.15007
3579.45622,0.15069
3577.52763,0.15131
3575.59904,0.15188
3573.67046,0.15242
3571.74187,0.15325
3569.81329,0.15468
3567.88470,0.15564
3565.95611,0.15565
3564.02753,0.15647
3562.09894,0.15793
3560.17035,0.15890
3558.24177,0.16003
3556.31318,0.16119
3554.38459,0.16219
3552.45601,0.16322
3550.52742,0.16416
3548.59884,0.16527
3546.67025,0.16627
3544.74166,0.16708
3542.81308,0.16817
3540.88449,0.16958
3538.95590,0.17090
3537.02732,0.17194
3535.09873,0.17288
3533.17015,0.17384
3531.24156,0.17500
3529.31297,0.17612
3527.38439,0.17721
3525.45580,0.17831
3523.52721,0.17907
3521.59863,0.17981
3519.67004,0.18090
3517.74145,0.18205
3515.81287,0.18319
3513.88428,0.18432
3511.95570,0.18536
3510.02711,0.18643
3508.09852,0.18733
3506.16994,0.18811
3504.24135,0.18919
3502.31276,0.19020
3500.38418,0.19113
3498.45559,0.19225
3496.52701,0.19332
3494.59842,0.19429
3492.66983,0.19515
3490.74125,0.19598
3488.81266,0.19688
3486.88407,0.19783
3484.95549,0.19878
3483.02690,0.19961
3481.09831,0.20037
3479.16973,0.20131
3477.24114,0.20215
3475.31256,0.20284
3473.38397,0.20387
3471.45538,0.20486
3469.52680,0.20562
3467.59821,0.20625
3465.66962,0.20682
3463.74104,0.20787
3461.81245,0.20886
3459.88386,0.20960
3457.95528,0.21022
3456.02669,0.21062
3454.09811,0.21129
3452.16952,0.21213
3450.24093,0.21303
3448.31235,0.21386
3446.38376,0.21436
3444.45517,0.21490
3442.52659,0.21566
3440.59800,0.21643
3438.66942,0.21703
3436.74083,0.21746
3434.81224,0.21781
3432.88366,0.21822
3430.95507,0.21895
3429.02648,0.21980
3427.09790,0.22036
3425.16931,0.22083
3423.24072,0.22154
3421.31214,0.22206
3419.38355,0.22220
3417.45497,0.22254
3415.52638,0.22319
3413.59779,0.22370
3411.66921,0.22408
3409.74062,0.22455
3407.81203,0.22495
3405.88345,0.22514
3403.95486,0.22531
3402.02628,0.22560
3400.09769,0.22593
3398.16910,0.22638
3396.24052,0.22677
3394.31193,0.22680
3392.38334,0.22684
3390.45476,0.22729
3388.52617,0.22786
3386.59758,0.22814
3384.66900,0.22818
3382.74041,0.22825
3380.81183,0.22840
3378.88324,0.22871
3376.95465,0.22916
3375.02607,0.22935
3373.09748,0.22928
3371.16889,0.22949
3369.24031,0.22964
3367.31172,0.22965
3365.38314,0.22996
3363.45455,0.23014
3361.52596,0.23020
3359.59738,0.23035
3357.66879,0.23056
3355.74020,0.23082
3353.81162,0.23086
3351.88303,0.23087
3349.95444,0.23092
3348.02586,0.23098
3346.09727,0.23116
3344.16869,0.23129
3342.24010,0.23128
3340.31151,0.23126
3338.38293,0.23124
3336.45434,0.23106
3334.52575,0.23099
3332.59717,0.23122
3330.66858,0.23136
3328.73999,0.23130
3326.81141,0.23119
3324.88282,0.23121
3322.95424,0.23132
3321.02565,0.23116
3319.09706,0.23085
3317.16848,0.23077
3315.23989,0.23084
3313.31130,0.23083
3311.38272,0.23056
3309.45413,0.23018
3307.52555,0.22998
3305.59696,0.23005
3303.66837,0.23015
3301.73979,0.22986
3299.81120,0.22950
3297.88261,0.22923
3295.95403,0.22888
3294.02544,0.22865
3292.09685,0.22850
3290.16827,0.22821
3288.23968,0.22768
3286.31110,0.22724
3284.38251,0.22694
3282.45392,0.22648
3280.52534,0.22595
3278.59675,0.22545
3276.66816,0.22497
3274.73958,0.22446
3272.81099,0.22368
3270.88241,0.22279
3268.95382,0.22212
3267.02523,0.22152
3265.09665,0.22070
3263.16806,0.21967
3261.23947,0.21875
3259.31089,0.21794
3257.38230,0.21714
3255.45371,0.21647
3253.52513,0.21575
3251.59654,0.21483
3249.66796,0.21393
3247.73937,0.21296
3245.81078,0.21188
3243.88220,0.21106
3241.95361,0.21042
3240.02502,0.20953
3238.09644,0.20880
3236.16785,0.20828
3234.23927,0.20750
3232.31068,0.20659
3230.38209,0.20574
3228.45351,0.20519
3226.52492,0.20476
3224.59633,0.20388
3222.66775,0.20299
3220.73916,0.20230
3218.81057,0.20155
3216.88199,0.20087
3214.95340,0.20023
3213.02482,0.19951
3211.09623,0.19876
3209.16764,0.19790
3207.23906,0.19700
3205.31047,0.19625
3203.38188,0.19556
3201.45330,0.19480
3199.52471,0.19386
3197.59612,0.19283
3195.66754,0.19204
3193.73895,0.19142
3191.81037,0.19072
3189.88178,0.18992
3187.95319,0.18918
3186.02461,0.18836
3184.09602,0.18746
3182.16743,0.18663
3180.23885,0.18576
3178.31026,0.18490
3176.38168,0.18403
3174.45309,0.18320
3172.52450,0.18238
3170.59592,0.18138
3168.66733,0.18043
3166.73874,0.17971
3164.81016,0.17902
3162.88157,0.17805
3160.95298,0.17709
3159.02440,0.17642
3157.09581,0.17565
3155.16723,0.17477
3153.23864,0.17402
3151.31005,0.17333
3149.38147,0.17255
3147.45288,0.17186
3145.52429,0.17129
3143.59571,0.17058
3141.66712,0.16984
3139.73854,0.16912
3137.80995,0.16851
3135.88136,0.16808
3133.95278,0.16754
3132.02419,0.16687
3130.09560,0.16622
3128.16702,0.16560
3126.23843,0.16500
3124.30984,0.16454
3122.38126,0.16408
3120.45267,0.16345
3118.52409,0.16291
3116.59550,0.16241
3114.66691,0.16197
3112.73833,0.16171
3110.80974,0.16120
3108.88115,0.16056
3106.95257,0.16017
3105.02398,0.15977
3103.09540,0.15934
3101.16681,0.15897
3099.23822,0.15861
3097.30964,0.15815
3095.38105,0.15757
3093.45246,0.15712
3091.52388,0.15684
3089.59529,0.15651
3087.66670,0.15604
3085.73812,0.15548
3083.80953,0.15496
3081.88095,0.15451
3079.95236,0.15400
3078.02377,0.15344
3076.09519,0.15300
3074.16660,0.15261
3072.23801,0.15206
3070.30943,0.15142
3068.38084,0.15077
3066.45225,0.15020
3064.52367,0.14970
3062.59508,0.14906
3060.66650,0.14832
3058.73791,0.14768
3056.80932,0.14709
3054.88074,0.14646
3052.95215,0.14583
3051.02356,0.14520
3049.09498,0.14443
3047.16639,0.14370
3045.23781,0.14309
3043.30922,0.14250
3041.38063,0.14195
3039.45205,0.14135
3037.52346,0.14076
3035.59487,0.14031
3033.66629,0.13994
3031.73770,0.13952
3029.80911,0.13901
3027.88053,0.13855
3025.95194,0.13814
3024.02336,0.13778
3022.09477,0.13748
3020.16618,0.13716
3018.23760,0.13698
3016.30901,0.13696
3014.38042,0.13690
3012.45184,0.13687
3010.52325,0.13690
3008.59467,0.13701
3006.66608,0.13722
3004.73749,0.13756
3002.80891,0.13800
3000.88032,0.13842
2998.95173,0.13888
2997.02315,0.13960
2995.09456,0.14044
2993.16597,0.14128
2991.23739,0.14225
2989.30880,0.14332
2987.38022,0.14462
2985.45163,0.14614
2983.52304,0.14770
2981.59446,0.14947
2979.66587,0.15139
2977.73728,0.15339
2975.80870,0.15555
2973.88011,0.15778
2971.95153,0.16010
2970.02294,0.16249
2968.09435,0.16507
2966.16577,0.16779
2964.23718,0.17035
2962.30859,0.17286
2960.38001,0.17533
2958.45142,0.17756
2956.52283,0.17950
2954.59425,0.18120
2952.66566,0.18290
2950.73708,0.18490
2948.80849,0.18721
2946.87990,0.18991
2944.95132,0.19330
2943.02273,0.19734
2941.09414,0.20208
2939.16556,0.20715
2937.23697,0.21214
2935.30838,0.21746
2933.37980,0.22290
2931.45121,0.22800
2929.52263,0.23257
2927.59404,0.23649
2925.66545,0.23961
2923.73687,0.24148
2921.80828,0.24180
2919.87969,0.24040
2917.95111,0.23625
2916.02252,0.22837
2914.09394,0.21803
2912.16535,0.20813
2910.23676,0.20009
2908.30818,0.19377
2906.37959,0.18874
2904.45100,0.18466
2902.52242,0.18125
2900.59383,0.17816
2898.66524,0.17501
2896.73666,0.17187
2894.80807,0.16898
2892.87949,0.16623
2890.95090,0.16363
2889.02231,0.16109
2887.09373,0.15863
2885.16514,0.15653
2883.23655,0.15491
2881.30797,0.15380
2879.37938,0.15301
2877.45080,0.15247
2875.52221,0.15227
2873.59362,0.15231
2871.66504,0.15257
2869.73645,0.15308
2867.80786,0.15384
2865.87928,0.15505
2863.95069,0.15736
2862.02210,0.16106
2860.09352,0.16608
2858.16493,0.17219
2856.23635,0.17844
2854.30776,0.18358
2852.37917,0.18601
2850.45059,0.18355
2848.52200,0.17532
2846.59341,0.16352
2844.66483,0.15169
2842.73624,0.14146
2840.80766,0.13300
2838.87907,0.12622
2836.95048,0.12083
2835.02190,0.11647
2833.09331,0.11282
2831.16472,0.10979
2829.23614,0.10718
2827.30755,0.10486
2825.37896,0.10279
2823.45038,0.10092
2821.52179,0.09936
2819.59321,0.09797
2817.66462,0.09658
2815.73603,0.09527
2813.80745,0.09405
2811.87886,0.09280
2809.95027,0.09164
2808.02169,0.09071
2806.09310,0.08979
2804.16451,0.08884
2802.23593,0.08794
2800.30734,0.08706
2798.37876,0.08613
2796.45017,0.08521
2794.52158,0.08445
2792.59300,0.08379
2790.66441,0.08308
2788.73582,0.08244
2786.80724,0.08190
2784.87865,0.08121
2782.95007,0.08037
2781.02148,0.07963
2779.09289,0.07909
2777.16431,0.07863
2775.23572,0.07817
2773.30713,0.07768
2771.37855,0.07715
2769.44996,0.07671
2767.52137,0.07626
2765.59279,0.07570
2763.66420,0.07520
2761.73562,0.07480
2759.80703,0.07440
2757.87844,0.07398
2755.94986,0.07356
2754.02127,0.07321
2752.09268,0.07284
2750.16410,0.07249
2748.23551,0.07220
2746.30693,0.07179
2744.37834,0.07139
2742.44975,0.07106
2740.52117,0.07071
2738.59258,0.07035
2736.66399,0.06995
2734.73541,0.06965
2732.80682,0.06934
2730.87823,0.06896
2728.94965,0.06861
2727.02106,0.06817
2725.09248,0.06773
2723.16389,0.06735
2721.23530,0.06695
2719.30672,0.06642
2717.37813,0.06589
2715.44954,0.06550
2713.52096,0.06515
2711.59237,0.06474
2709.66379,0.06423
2707.73520,0.06376
2705.80661,0.06344
2703.87803,0.06306
2701.94944,0.06269
2700.02085,0.06231
2698.09227,0.06192
2696.16368,0.06152
2694.23509,0.06105
2692.30651,0.06073
2690.37792,0.06056
2688.44934,0.06042
2686.52075,0.06017
2684.59216,0.05982
2682.66358,0.05952
2680.73499,0.05921
2678.80640,0.05883
2676.87782,0.05837
2674.94923,0.05800
2673.02064,0.05770
2671.09206,0.05729
2669.16347,0.05694
2667.23489,0.05661
2665.30630,0.05624
2663.37771,0.05587
2661.44913,0.05554
2659.52054,0.05524
2657.59195,0.05485
2655.66337,0.05442
2653.73478,0.05419
2651.80620,0.05406
2649.87761,0.05377
2647.94902,0.05342
2646.02044,0.05309
2644.09185,0.05276
2642.16326,0.05244
2640.23468,0.05209
2638.30609,0.05176
2636.37750,0.05139
2634.44892,0.05099
2632.52033,0.05069
2630.59175,0.05037
2628.66316,0.05008
2626.73457,0.04980
2624.80599,0.04945
2622.87740,0.04913
2620.94881,0.04886
2619.02023,0.04853
2617.09164,0.04819
2615.16306,0.04785
2613.23447,0.04746
2611.30588,0.04713
2609.37730,0.04683
2607.44871,0.04652
2605.52012,0.04617
2603.59154,0.04576
2601.66295,0.04549
2599.73436,0.04524
2597.80578,0.04489
2595.87719,0.04455
2593.94861,0.04424
2592.02002,0.04395
2590.09143,0.04365
2588.16285,0.04334
2586.23426,0.04307
2584.30567,0.04281
2582.37709,0.04243
2580.44850,0.04203
2578.51991,0.04178
2576.59133,0.04150
2574.66274,0.04115
2572.73416,0.04087
2570.80557,0.04059
2568.87698,0.04031
2566.94840,0.04009
2565.01981,0.03985
2563.09122,0.03959
2561.16264,0.03927
2559.23405,0.03893
2557.30547,0.03877
2555.37688,0.03866
2553.44829,0.03845
2551.51971,0.03822
2549.59112,0.03794
2547.66253,0.03766
2545.73395,0.03736
2543.80536,0.03704
2541.87677,0.03677
2539.94819,0.03658
2538.01960,0.03639
2536.09102,0.03608
2534.16243,0.03583
2532.23384,0.03570
2530.30526,0.03548
2528.37667,0.03515
2526.44808,0.03484
2524.51950,0.03458
2522.59091,0.03433
2520.66233,0.03410
2518.73374,0.03387
2516.80515,0.03356
2514.87657,0.03327
2512.94798,0.03296
2511.01939,0.03267
2509.09081,0.03248
2507.16222,0.03226
2505.23363,0.03195
2503.30505,0.03165
2501.37646,0.03141
2499.44788,0.03114
2497.51929,0.03083
2495.59070,0.03053
2493.66212,0.03020
2491.73353,0.02983
2489.80494,0.02954
2487.87636,0.02927
2485.94777,0.02899
2484.01919,0.02874
2482.09060,0.02848
2480.16201,0.02821
2478.23343,0.02787
2476.30484,0.02752
2474.37625,0.02725
2472.44767,0.02693
2470.51908,0.02659
2468.59049,0.02627
2466.66191,0.02595
2464.73332,0.02563
2462.80474,0.02536
2460.87615,0.02508
2458.94756,0.02477
2457.01898,0.02448
2455.09039,0.02417
2453.16180,0.02383
2451.23322,0.02347
2449.30463,0.02311
2447.37604,0.02283
2445.44746,0.02260
2443.51887,0.02236
2441.59029,0.02213
2439.66170,0.02179
2437.73311,0.02142
2435.80453,0.02113
2433.87594,0.02080
2431.94735,0.02049
2430.01877,0.02015
2428.09018,0.01982
2426.16160,0.01958
2424.23301,0.01929
2422.30442,0.01893
2420.37584,0.01861
2418.44725,0.01837
2416.51866,0.01816
2414.59008,0.01789
2412.66149,0.01763
2410.73290,0.01728
2408.80432,0.01692
2406.87573,0.01674
2404.94715,0.01653
2403.01856,0.01617
2401.08997,0.01580
2399.16139,0.01551
2397.23280,0.01527
2395.30421,0.01506
2393.37563,0.01485
2391.44704,0.01461
2389.51846,0.01437
2387.58987,0.01412
2385.66128,0.01386
2383.73270,0.01358
2381.80411,0.01343
2379.87552,0.01341
2377.94694,0.01329
2376.01835,0.01312
2374.08976,0.01293
2372.16118,0.01274
2370.23259,0.01263
2368.30401,0.01242
2366.37542,0.01210
2364.44683,0.01176
2362.51825,0.01142
2360.58966,0.01110
2358.66107,0.01075
2356.73249,0.01037
2354.80390,0.01006
2352.87532,0.00976
2350.94673,0.00957
2349.01814,0.00986
2347.08956,0.01029
2345.16097,0.01032
2343.23238,0.01013
2341.30380,0.00996
2339.37521,0.00980
2337.44662,0.00949
2335.51804,0.00910
2333.58945,0.00884
2331.66087,0.00860
2329.73228,0.00842
2327.80369,0.00831
2325.87511,0.00811
2323.94652,0.00788
2322.01793,0.00771
2320.08935,0.00761
2318.16076,0.00749
2316.23217,0.00741
2314.30359,0.00730
2312.37500,0.00712
2310.44642,0.00697
2308.51783,0.00686
2306.58924,0.00676
2304.66066,0.00667
2302.73207,0.00653
2300.80348,0.00636
2298.87490,0.00621
2296.94631,0.00607
2295.01773,0.00592
2293.08914,0.00574
2291.16055,0.00560
2289.23197,0.00548
2287.30338,0.00536
2285.37479,0.00529
2283.44621,0.00516
2281.51762,0.00498
2279.58903,0.00483
2277.66045,0.00470
2275.73186,0.00464
2273.80328,0.00463
2271.87469,0.00452
2269.94610,0.00432
2268.01752,0.00414
2266.08893,0.00411
2264.16034,0.00405
2262.23176,0.00389
2260.30317,0.00374
2258.37459,0.00364
2256.44600,0.00361
2254.51741,0.00357
2252.58883,0.00341
2250.66024,0.00319
2248.73165,0.00304
2246.80307,0.00299
2244.87448,0.00291
2242.94589,0.00286
2241.01731,0.00289
2239.08872,0.00279
2237.16014,0.00259
2235.23155,0.00249
2233.30296,0.00243
2231.37438,0.00231
2229.44579,0.00217
2227.51720,0.00204
2225.58862,0.00194
2223.66003,0.00178
2221.73145,0.00162
2219.80286,0.00158
2217.87427,0.00158
2215.94569,0.00151
2214.01710,0.00140
2212.08851,0.00127
2210.15993,0.00116
2208.23134,0.00108
2206.30275,0.00100
2204.37417,0.00096
2202.44558,0.00090
2200.51700,0.00084
2198.58841,0.00075
2196.65982,0.00056
2194.73124,0.00046
2192.80265,0.00049
2190.87406,0.00045
2188.94548,0.00035
2187.01689,0.00037
2185.08830,0.00044
2183.15972,0.00042
2181.23113,0.00037
2179.30255,0.00031
2177.37396,0.00027
2175.44537,0.00035
2173.51679,0.00039
2171.58820,0.00024
2169.65961,0.00000
2167.73103,0.00012
2165.80244,0.00038
2163.87386,0.00036
2161.94527,0.00033
2160.01668,0.00027
2158.08810,0.00017
2156.15951,0.00020
2154.23092,0.00033
2152.30234,0.00043
2150.37375,0.00040
2148.44516,0.00033
2146.51658,0.00036
2144.58799,0.00041
2142.65941,0.00045
2140.73082,0.00047
2138.80223,0.00039
2136.87365,0.00031
2134.94506,0.00036
2133.01647,0.00039
2131.08789,0.00036
2129.15930,0.00036
2127.23072,0.00029
2125.30213,0.00019
2123.37354,0.00007
2121.44496,0.00000
2119.51637,-0.00001
2117.58778,-0.00006
2115.65920,0.00002
2113.73061,0.00009
2111.80202,-0.00000
2109.87344,-0.00007
2107.94485,-0.00011
2106.01627,-0.00009
2104.08768,-0.00003
2102.15909,-0.00005
2100.23051,-0.00010
2098.30192,-0.00012
2096.37333,-0.00014
2094.44475,-0.00014
2092.51616,-0.00011
2090.58758,-0.00013
2088.65899,-0.00020
2086.73040,-0.00023
2084.80182,-0.00011
2082.87323,0.00001
2080.94464,0.00000
2079.01606,-0.00007
2077.08747,-0.00014
2075.15888,-0.00023
2073.23030,-0.00023
2071.30171,-0.00019
2069.37313,-0.00022
2067.44454,-0.00028
2065.51595,-0.00025
2063.58737,-0.00019
2061.65878,-0.00018
2059.73019,-0.00024
2057.80161,-0.00030
2055.87302,-0.00026
2053.94443,-0.00018
2052.01585,-0.00006
2050.08726,0.00005
2048.15868,0.00005
2046.23009,0.00014
2044.30150,0.00035
2042.37292,0.00058
2040.44433,0.00076
2038.51574,0.00099
2036.58716,0.00129
2034.65857,0.00157
2032.72999,0.00182
2030.80140,0.00202
2028.87281,0.00216
2026.94423,0.00226
2025.01564,0.00222
2023.08705,0.00212
2021.15847,0.00213
2019.22988,0.00231
2017.30129,0.00248
2015.37271,0.00255
2013.44412,0.00270
2011.51554,0.00289
2009.58695,0.00318
2007.65836,0.00348
2005.72978,0.00362
2003.80119,0.00377
2001.87260,0.00381
1999.94402,0.00376
1998.01543,0.00381
1996.08685,0.00383
1994.15826,0.00379
1992.22967,0.00366
1990.30109,0.00347
1988.37250,0.00337
1986.44391,0.00330
1984.51533,0.00316
1982.58674,0.00308
1980.65815,0.00303
1978.72957,0.00289
1976.80098,0.00270
1974.87240,0.00261
1972.94381,0.00257
1971.01522,0.00234
1969.08664,0.00209
1967.15805,0.00190
1965.22946,0.00163
1963.30088,0.00140
1961.37229,0.00123
1959.44371,0.00104
1957.51512,0.00079
1955.58653,0.00062
1953.65795,0.00058
1951.72936,0.00053
1949.80077,0.00046
1947.87219,0.00039
1945.94360,0.00038
1944.01501,0.00040
1942.08643,0.00016
1940.15784,-0.00003
1938.22926,0.00007
1936.30067,0.00002
1934.37208,-0.00014
1932.44350,-0.00021
1930.51491,-0.00023
1928.58632,-0.00028
1926.65774,-0.00022
1924.72915,0.00000
1922.80056,-0.00006
1920.87198,-0.00004
1918.94339,0.00024
1917.01481,0.00029
1915.08622,0.00056
1913.15763,0.00114
1911.22905,0.00169
1909.30046,0.00223
1907.37187,0.00269
1905.44329,0.00335
1903.51470,0.00407
1901.58612,0.00465
1899.65753,0.00520
1897.72894,0.00581
1895.80036,0.00652
1893.87177,0.00700
1891.94318,0.00750
1890.01460,0.00805
1888.08601,0.00836
1886.15742,0.00873
1884.22884,0.00897
1882.30025,0.00905
1880.37167,0.00923
1878.44308,0.00945
1876.51449,0.00962
1874.58591,0.00967
1872.65732,0.00986
1870.72873,0.01008
1868.80015,0.00980
1866.87156,0.00920
1864.94298,0.00880
1863.01439,0.00827
1861.08580,0.00757
1859.15722,0.00686
1857.22863,0.00590
1855.30004,0.00500
1853.37146,0.00408
1851.44287,0.00325
1849.51428,0.00244
1847.58570,0.00184
1845.65711,0.00167
1843.72853,0.00072
1841.79994,0.00000
1839.87135,-0.00000
1837.94277,-0.00030
1836.01418,-0.00061
1834.08559,-0.00074
1832.15701,-0.00038
1830.22842,-0.00028
1828.29984,-0.00044
1826.37125,0.00002
1824.44266,0.00021
1822.51408,0.00049
1820.58549,0.00117
1818.65690,0.00184
1816.72832,0.00260
1814.79973,0.00340
1812.87114,0.00440
1810.94256,0.00539
1809.01397,0.00646
1807.08539,0.00770
1805.15680,0.00913
1803.22821,0.01085
1801.29963,0.01246
1799.37104,0.01403
1797.44245,0.01581
1795.51387,0.01805
1793.58528,0.02038
1791.65669,0.02200
1789.72811,0.02383
1787.79952,0.02643
1785.87094,0.02892
1783.94235,0.03130
1782.01376,0.03365
1780.08518,0.03589
1778.15659,0.03816
1776.22800,0.04060
1774.29942,0.04324
1772.37083,0.04499
1770.44225,0.04641
1768.51366,0.04862
1766.58507,0.05054
1764.65649,0.05283
1762.72790,0.05528
1760.79931,0.05715
1758.87073,0.05975
1756.94214,0.06245
1755.01355,0.06523
1753.08497,0.06880
1751.15638,0.07218
1749.22780,0.07552
1747.29921,0.07962
1745.37062,0.08410
1743.44204,0.08874
1741.51345,0.09363
1739.58486,0.09796
1737.65628,0.10223
1735.72769,0.10710
1733.79911,0.10994
1731.87052,0.11197
1729.94193,0.11550
1728.01335,0.11848
1726.08476,0.12136
1724.15617,0.12425
1722.22759,0.12705
1720.29900,0.13080
1718.37041,0.13378
1716.44183,0.13553
1714.51324,0.13754
1712.58466,0.14005
1710.65607,0.14239
1708.72748,0.14449
1706.79890,0.14654
1704.87031,0.14797
1702.94172,0.15062
1701.01314,0.15326
1699.08455,0.15434
1697.15596,0.15728
1695.22738,0.15938
1693.29879,0.16103
1691.37021,0.16456
1689.44162,0.16694
1687.51303,0.17016
1685.58445,0.17346
1683.65586,0.17448
1681.72727,0.17682
1679.79869,0.18007
1677.87010,0.18336
1675.94152,0.18600
1674.01293,0.18775
1672.08434,0.19035
1670.15576,0.19270
1668.22717,0.19404
1666.29858,0.19570
1664.37000,0.19777
1662.44141,0.19881
1660.51282,0.19967
1658.58424,0.20074
1656.65565,0.20190
1654.72707,0.20349
1652.79848,0.20167
1650.86989,0.19991
1648.94131,0.20160
1647.01272,0.20187
1645.08413,0.20077
1643.15555,0.20071
1641.22696,0.20117
1639.29838,0.20178
1637.36979,0.20251
1635.44120,0.20173
1633.51262,0.20048
1631.58403,0.20088
1629.65544,0.20066
1627.72686,0.19949
1625.79827,0.19810
1623.86968,0.19625
1621.94110,0.19369
1620.01251,0.19203
1618.08393,0.19116
1616.15534,0.18827
1614.22675,0.18596
1612.29817,0.18478
1610.36958,0.18304
1608.44099,0.18139
1606.51241,0.17984
1604.58382,0.17862
1602.65524,0.17705
1600.72665,0.17549
1598.79806,0.17408
1596.86948,0.17250
1594.94089,0.17100
1593.01230,0.16922
1591.08372,0.16726
1589.15513,0.16517
1587.22654,0.16317
1585.29796,0.16102
1583.36937,0.15891
1581.44079,0.15677
1579.51220,0.15501
1577.58361,0.15375
1575.65503,0.15089
1573.72644,0.14874
1571.79785,0.14862
1569.86927,0.14763
1567.94068,0.14619
1566.01209,0.14573
1564.08351,0.14551
1562.15492,0.14631
1560.22634,0.14693
1558.29775,0.14462
1556.36916,0.14379
1554.44058,0.14459
1552.51199,0.14453
1550.58340,0.14481
1548.65482,0.14458
1546.72623,0.14456
1544.79765,0.14456
1542.86906,0.14415
1540.94047,0.14363
1539.01189,0.14115
1537.08330,0.14001
1535.15471,0.14023
1533.22613,0.13892
1531.29754,0.13743
1529.36895,0.13669
1527.44037,0.13570
1525.51178,0.13428
1523.58320,0.13395
1521.65461,0.13334
1519.72602,0.13224
1517.79744,0.13231
1515.86885,0.13155
1513.94026,0.12997
1512.01168,0.12790
1510.08309,0.12552
1508.15451,0.12350
1506.22592,0.11908
1504.29733,0.11424
1502.36875,0.11135
1500.44016,0.10822
1498.51157,0.10480
1496.58299,0.10081
1494.65440,0.09697
1492.72581,0.09475
1490.79723,0.09250
1488.86864,0.09000
1486.94006,0.08827
1485.01147,0.08718
1483.08288,0.08687
1481.15430,0.08729
1479.22571,0.08859
1477.29712,0.09082
1475.36854,0.09409
1473.43995,0.09868
1471.51137,0.10400
1469.58278,0.11004
1467.65419,0.11576
1465.72561,0.11894
1463.79702,0.12006
1461.86843,0.12069
1459.93985,0.12201
1458.01126,0.12320
1456.08267,0.12258
1454.15409,0.12249
1452.22550,0.12300
1450.29692,0.12284
1448.36833,0.12244
1446.43974,0.12164
1444.51116,0.12121
1442.58257,0.12095
1440.65398,0.12084
1438.72540,0.12141
1436.79681,0.12121
1434.86822,0.12060
1432.93964,0.12080
1431.01105,0.12105
1429.08247,0.12096
1427.15388,0.12108
1425.22529,0.12148
1423.29671,0.12191
1421.36812,0.12276
1419.43953,0.12299
1417.51095,0.12244
1415.58236,0.12246
1413.65378,0.12226
1411.72519,0.12193
1409.79660,0.12172
1407.86802,0.12135
1405.93943,0.12098
1404.01084,0.12018
1402.08226,0.11963
1400.15367,0.11896
1398.22508,0.11773
1396.29650,0.11680
1394.36791,0.11557
1392.43933,0.11447
1390.51074,0.11417
1388.58215,0.11384
1386.65357,0.11299
1384.72498,0.11230
1382.79639,0.11259
1380.86781,0.11338
1378.93922,0.11384
1377.01064,0.11375
1375.08205,0.11312
1373.15346,0.11196
1371.22488,0.11067
1369.29629,0.10941
1367.36770,0.10804
1365.43912,0.10674
1363.51053,0.10529
1361.58194,0.10378
1359.65336,0.10264
1357.72477,0.10162
1355.79619,0.10062
1353.86760,0.09966
1351.93901,0.09873
1350.01043,0.09794
1348.08184,0.09723
1346.15325,0.09649
1344.22467,0.09589
1342.29608,0.09557
1340.36750,0.09513
1338.43891,0.09445
1336.51032,0.09385
1334.58174,0.09333
1332.65315,0.09294
1330.72456,0.09268
1328.79598,0.09228
1326.86739,0.09169
1324.93880,0.09113
1323.01022,0.09083
1321.08163,0.09063
1319.15305,0.09020
1317.22446,0.08979
1315.29587,0.08964
1313.36729,0.08939
1311.43870,0.08907
1309.51011,0.08876
1307.58153,0.08822
1305.65294,0.08781
1303.72435,0.08771
1301.79577,0.08766
1299.86718,0.08767
1297.93860,0.08784
1296.01001,0.08808
1294.08142,0.08835
1292.15284,0.08905
1290.22425,0.09025
1288.29566,0.09151
1286.36708,0.09290
1284.43849,0.09452
1282.50991,0.09614
1280.58132,0.09776
1278.65273,0.09949
1276.72415,0.10137
1274.79556,0.10323
1272.86697,0.10496
1270.93839,0.10688
1269.00980,0.10914
1267.08121,0.11144
1265.15263,0.11369
1263.22404,0.11605
1261.29546,0.11870
1259.36687,0.12191
1257.43828,0.12575
1255.50970,0.13025
1253.58111,0.13532
1251.65252,0.14080
1249.72394,0.14643
1247.79535,0.15175
1245.86677,0.15681
1243.93818,0.16181
1242.00959,0.16650
1240.08101,0.17095
1238.15242,0.17502
1236.22383,0.17853
1234.29525,0.18187
1232.36666,0.18489
1230.43807,0.18757
1228.50949,0.19018
1226.58090,0.19265
1224.65232,0.19506
1222.72373,0.19725
1220.79514,0.19934
1218.86656,0.20154
1216.93797,0.20369
1215.00938,0.20583
1213.08080,0.20803
1211.15221,0.21036
1209.22363,0.21263
1207.29504,0.21460
1205.36645,0.21637
1203.43787,0.21795
1201.50928,0.21956
1199.58069,0.22123
1197.65211,0.22278
1195.72352,0.22417
1193.79493,0.22542
1191.86635,0.22693
1189.93776,0.22868
1188.00918,0.23023
1186.08059,0.23170
1184.15200,0.23341
1182.22342,0.23527
1180.29483,0.23724
1178.36624,0.23958
1176.43766,0.24222
1174.50907,0.24482
1172.58048,0.24755
1170.65190,0.25037
1168.72331,0.25312
1166.79473,0.25609
1164.86614,0.25885
1162.93755,0.26122
1161.00897,0.26332
1159.08038,0.26455
1157.15179,0.26530
1155.22321,0.26609
1153.29462,0.26719
1151.36604,0.26878
1149.43745,0.27041
1147.50886,0.27229
1145.58028,0.27438
1143.65169,0.27678
1141.72310,0.27968
1139.79452,0.28265
1137.86593,0.28612
1135.93734,0.29004
1134.00876,0.29387
1132.08017,0.29768
1130.15159,0.30156
1128.22300,0.30621
1126.29441,0.31154
1124.36583,0.31695
1122.43724,0.32243
1120.50865,0.32774
1118.58007,0.33310
1116.65148,0.33906
1114.72290,0.34559
1112.79431,0.35199
1110.86572,0.35776
1108.93714,0.36361
1107.00855,0.36942
1105.07996,0.37431
1103.15138,0.37821
1101.22279,0.38154
1099.29420,0.38433
1097.36562,0.38607
1095.43703,0.38704
1093.50845,0.38755
1091.57986,0.38766
1089.65127,0.38740
1087.72269,0.38685
1085.79410,0.38633
1083.86551,0.38507
1081.93693,0.38317
1080.00834,0.38145
1078.07976,0.37987
1076.15117,0.37813
1074.22258,0.37634
1072.29400,0.37530
1070.36541,0.37446
1068.43682,0.37357
1066.50824,0.37257
1064.57965,0.37114
1062.65106,0.37011
1060.72248,0.36879
1058.79389,0.36660
1056.86531,0.36413
1054.93672,0.36163
1053.00813,0.35935
1051.07955,0.35743
1049.15096,0.35606
1047.22237,0.35553
1045.29379,0.35604
1043.36520,0.35712
1041.43661,0.35861
1039.50803,0.35998
1037.57944,0.36061
1035.65086,0.36124
1033.72227,0.36164
1031.79368,0.36094
1029.86510,0.35902
1027.93651,0.35650
1026.00792,0.35350
1024.07934,0.34983
1022.15075,0.34620
1020.22217,0.34279
1018.29358,0.33939
1016.36499,0.33624
1014.43641,0.33328
1012.50782,0.32991
1010.57923,0.32641
1008.65065,0.32313
1006.72206,0.31936
1004.79347,0.31514
1002.86489,0.31037
1000.93630,0.30524
999.00772,0.30012
997.07913,0.29457
995.15054,0.28882
993.22196,0.28295
991.29337,0.27707
989.36478,0.27090
987.43620,0.26412
985.50761,0.25725
983.57903,0.24963
981.65044,0.24121
979.72185,0.23236
977.79327,0.22295
975.86468,0.21356
973.93609,0.20404
972.00751,0.19419
970.07892,0.18476
968.15033,0.17595
966.22175,0.16774
964.29316,0.16018
962.36458,0.15305
960.43599,0.14642
958.50740,0.14089
956.57882,0.13635
954.65023,0.13208
952.72164,0.12813
950.79306,0.12486
948.86447,0.12203
946.93589,0.11960
945.00730,0.11771
943.07871,0.11622
941.15013,0.11477
939.22154,0.11304
937.29295,0.11143
935.36437,0.10996
933.43578,0.10856
931.50719,0.10743
929.57861,0.10624
927.65002,0.10509
925.72144,0.10423
923.79285,0.10370
921.86426,0.10328
919.93568,0.10281
918.00709,0.10240
916.07850,0.10185
914.14992,0.10104
912.22133,0.09934
910.29274,0.09625
908.36416,0.09205
906.43557,0.08700
904.50699,0.08124
902.57840,0.07497
900.64981,0.06893
898.72123,0.06319
896.79264,0.05793
894.86405,0.05344
892.93547,0.04913
891.00688,0.04527
889.07830,0.04197
887.14971,0.03862
885.22112,0.03498
883.29254,0.03175
881.36395,0.02927
879.43536,0.02640
877.50678,0.02314
875.57819,0.02034
873.64960,0.01788
871.72102,0.01512
869.79243,0.01227
867.86385,0.01000
865.93526,0.00776
864.00667,0.00549
862.07809,0.00338
860.14950,0.00157
858.22091,0.00051
856.29233,0.00000
854.36374,-0.00014
852.43516,-0.00006
850.50657,0.00029
848.57798,0.00110
846.64940,0.00229
844.72081,0.00396
842.79222,0.00621
840.86364,0.00920
838.93505,0.01269
837.00646,0.01634
835.07788,0.01979
833.14929,0.02328
831.22071,0.02671
829.29212,0.02856
827.36353,0.02929
825.43495,0.03010
823.50636,0.03069
821.57777,0.03164
819.64919,0.03327
817.72060,0.03462
815.79201,0.03602
813.86343,0.03836
811.93484,0.04126
810.00626,0.04487
808.07767,0.05026
806.14908,0.05756
804.22050,0.06491
802.29191,0.07016
800.36332,0.07265
798.43474,0.07183
796.50615,0.06851
794.57757,0.06427
792.64898,0.05971
790.72039,0.05576
788.79181,0.05260
786.86322,0.05087
784.93463,0.05116
783.00605,0.05250
781.07746,0.05330
779.14887,0.05110
777.22029,0.04636
775.29170,0.04129
773.36312,0.03602
771.43453,0.03129
769.50594,0.02783
767.57736,0.02563
765.64877,0.02450
763.72018,0.02417
761.79160,0.02436
759.86301,0.02473
757.93443,0.02498
756.00584,0.02468
754.07725,0.02450
752.14867,0.02384
750.22008,0.02212
748.29149,0.02087
746.36291,0.01933
744.43432,0.01702
742.50573,0.01476
740.57715,0.01242
738.64856,0.01016
736.71998,0.00793
734.79139,0.00600
732.86280,0.00448
730.93422,0.00363
729.00563,0.00372
727.07704,0.00419
725.14846,0.00461
723.21987,0.00460
721.29129,0.00411
719.36270,0.00274
717.43411,0.00118
715.50553,0.00050
713.57694,0.00000
711.64835,-0.00024
709.71977,0.00076
707.79118,0.00272
705.86259,0.00440
703.93401,0.00622
702.00542,0.00914
700.07684,0.01288
698.14825,0.01764
696.21966,0.02130
694.29108,0.02144
692.36249,0.01879
690.43390,0.01461
688.50532,0.01089
686.57673,0.00860
684.64814,0.00686
682.71956,0.00527
680.79097,0.00391
678.86239,0.00273
676.93380,0.00220
675.00521,0.00260
673.07663,0.00262
671.14804,0.00204
669.21945,0.00139
667.29087,0.00044
665.36228,0.00000
663.43370,-0.00014
661.50511,-0.00031
659.57652,-0.00050
657.64794,-0.00103
655.71935,-0.00108
653.79076,-0.00024
651.86218,0.00047
649.93359,0.00103
648.00500,0.00255
646.07642,0.00403
644.14783,0.00385
642.21925,0.00328
640.29066,0.00427
638.36207,0.00561
636.43349,0.00570
634.50490,0.00585
632.57631,0.00711
630.64773,0.00845
628.71914,0.00831
626.79056,0.00782
624.86197,0.00846
622.93338,0.00865
621.00480,0.00954
619.07621,0.01199
617.14762,0.01321
615.21904,0.01335
613.29045,0.01445
611.36186,0.01628
609.43328,0.01786
607.50469,0.01870
605.57611,0.01813
603.64752,0.01841
601.71893,0.02139
599.79035,0.02428
597.86176,0.02621
595.93317,0.02868
594.00459,0.03123
592.07600,0.03326
590.14742,0.03696
588.21883,0.04163
586.29024,0.04473
584.36166,0.04881
582.43307,0.05309
580.50448,0.05604
578.57590,0.06029
576.64731,0.06453
574.71872,0.06827
572.79014,0.07278
570.86155,0.07663
568.93297,0.08052
567.00438,0.08641
565.07579,0.09234
563.14721,0.09735
561.21862,0.10365
559.29003,0.11007
557.36145,0.11392
555.43286,0.11606
553.50427,0.11989
551.57569,0.12594
549.64710,0.13053
547.71852,0.13351
545.78993,0.13832
543.86134,0.14470
541.93276,0.15025
540.00417,0.15562
538.07558,0.16136
536.14700,0.16580
534.21841,0.16858
532.28983,0.17028
530.36124,0.17209
528.43265,0.17533
526.50407,0.17531
524.57548,0.17092
522.64689,0.16946
520.71831,0.16836
518.78972,0.16301
516.86113,0.15693
514.93255,0.15172
513.00396,0.14694
511.07538,0.14236
509.14679,0.13949
507.21820,0.13797
505.28962,0.13661
503.36103,0.13773
501.43244,0.14107
499.50386,0.14527
497.57527,0.15014
495.64669,0.15502
493.71810,0.16317
491.78951,0.17486
489.86093,0.18426
487.93234,0.19450
486.00375,0.20830
484.07517,0.22138
482.14658,0.23495
480.21799,0.24566
478.28941,0.25077
476.36082,0.25603
474.43224,0.26191
472.50365,0.25982
470.57506,0.25361
468.64648,0.25254
466.71789,0.25002
464.78930,0.24417
462.86072,0.23102
460.93213,0.21196
459.00355,0.19585
457.07496,0.18467
455.14637,0.17390
453.21779,0.16047
451.28920,0.15066
449.36061,0.13936
447.43203,0.13112
445.50344,0.12669
443.57485,0.12089
441.64627,0.12018
439.71768,0.11515
437.78910,0.10979
435.86051,0.10596
433.93192,0.10314
432.00334,0.10512
430.07475,0.10226
428.14616,0.10122
426.21758,0.10018
424.28899,0.09336
422.36040,0.08449
420.43182,0.08195
418.50323,0.08085
416.57465,0.06774
414.64606,0.05179
412.71747,0.03749
410.78889,0.03370
408.86030,0.03070
406.93171,0.01696
405.00313,0.00273
403.07454,0.00000
401.14596,0.00356
399.21737,0.00000
