3747.24323,0.00000
3745.31464,0.00012
3743.38605,0.00100
3741.45747,0.00150
3739.52888,0.00147
3737.60030,0.00166
3735.67171,0.00220
3733.74312,0.00276
3731.81454,0.00326
3729.88595,0.00384
3727.95736,0.00449
3726.02878,0.00529
3724.10019,0.00631
3722.17161,0.00730
3720.24302,0.00867
3718.31443,0.01057
3716.38585,0.01264
3714.45726,0.01493
3712.52867,0.01776
3710.60009,0.02120
3708.67150,0.02435
3706.74291,0.02723
3704.81433,0.03043
3702.88574,0.03400
3700.95716,0.03726
3699.02857,0.03951
3697.09998,0.04082
3695.17140,0.04149
3693.24281,0.04184
3691.31422,0.04231
3689.38564,0.04350
3687.45705,0.04559
3685.52846,0.04775
3683.59988,0.05001
3681.67129,0.05280
3679.74271,0.05603
3677.81412,0.05951
3675.88553,0.06386
3673.95695,0.06871
3672.02836,0.07263
3670.09977,0.07707
3668.17119,0.08198
3666.24260,0.08631
3664.31402,0.09059
3662.38543,0.09481
3660.45684,0.09918
3658.52826,0.10315
3656.59967,0.10699
3654.67108,0.11083
3652.74250,0.11381
3650.81391,0.11694
3648.88532,0.12069
3646.95674,0.12402
3645.02815,0.12670
3643.09957,0.12923
3641.17098,0.13183
3639.24239,0.13459
3637.31381,0.13748
3635.38522,0.14038
3633.45663,0.14324
3631.52805,0.14552
3629.59946,0.14795
3627.67088,0.15060
3625.74229,0.15196
3623.81370,0.15276
3621.88512,0.15335
3619.95653,0.15322
3618.02794,0.15231
3616.09936,0.15071
3614.17077,0.14909
3612.24218,0.14776
3610.31360,0.14642
3608.38501,0.14536
3606.45643,0.14446
3604.52784,0.14358
3602.59925,0.14273
3600.67067,0.14189
3598.74208,0.14122
3596.81349,0.14065
3594.88491,0.14018
3592.95632,0.13980
3591.02774,0.13942
3589.09915,0.13914
3587.17056,0.13914
3585.24198,0.13924
3583.31339,0.13922
3581.38480,0.13924
3579.45622,0.13948
3577.52763,0.14007
3575.59904,0.14070
3573.67046,0.14112
3571.74187,0.14171
3569.81329,0.14238
3567.88470,0.14307
3565.95611,0.14397
3564.02753,0.14489
3562.09894,0.14584
3560.17035,0.14672
3558.24177,0.14756
3556.31318,0.14851
3554.38459,0.14937
3552.45601,0.15019
3550.52742,0.15109
3548.59884,0.15197
3546.67025,0.15290
3544.74166,0.15389
3542.81308,0.15473
3540.88449,0.15547
3538.95590,0.15641
3537.02732,0.15744
3535.09873,0.15844
3533.17015,0.15938
3531.24156,0.16029
3529.31297,0.16133
3527.38439,0.16223
3525.45580,0.16302
3523.52721,0.16399
3521.59863,0.16497
3519.67004,0.16577
3517.74145,0.16669
3515.81287,0.16767
3513.88428,0.16853
3511.95570,0.16940
3510.02711,0.17030
3508.09852,0.17129
3506.16994,0.17222
3504.24135,0.17303
3502.31276,0.17408
3500.38418,0.17508
3498.45559,0.17580
3496.52701,0.17656
3494.59842,0.17733
3492.66983,0.17817
3490.74125,0.17929
3488.81266,0.18029
3486.88407,0.18092
3484.95549,0.18165
3483.02690,0.18254
3481.09831,0.18340
3479.16973,0.18416
3477.24114,0.18475
3475.31256,0.18539
3473.38397,0.18624
3471.45538,0.18701
3469.52680,0.18755
3467.59821,0.18815
3465.66962,0.18894
3463.74104,0.18970
3461.81245,0.19028
3459.88386,0.19102
3457.95528,0.19192
3456.02669,0.19255
3454.09811,0.19304
3452.16952,0.19369
3450.24093,0.19433
3448.31235,0.19491
3446.38376,0.19557
3444.45517,0.19615
3442.52659,0.19673
3440.59800,0.19748
3438.66942,0.19813
3436.74083,0.19874
3434.81224,0.19932
3432.88366,0.19961
3430.95507,0.19993
3429.02648,0.20053
3427.09790,0.20109
3425.16931,0.20159
3423.24072,0.20212
3421.31214,0.20258
3419.38355,0.20301
3417.45497,0.20339
3415.52638,0.20373
3413.59779,0.20409
3411.66921,0.20434
3409.74062,0.20464
3407.81203,0.20504
3405.88345,0.20538
3403.95486,0.20563
3402.02628,0.20600
3400.09769,0.20647
3398.16910,0.20685
3396.24052,0.20709
3394.31193,0.20724
3392.38334,0.20745
3390.45476,0.20766
3388.52617,0.20780
3386.59758,0.20797
3384.66900,0.20821
3382.74041,0.20838
3380.81183,0.20839
3378.88324,0.20841
3376.95465,0.20862
3375.02607,0.20898
3373.09748,0.20921
3371.16889,0.20937
3369.24031,0.20953
3367.31172,0.20962
3365.38314,0.20982
3363.45455,0.21001
3361.52596,0.21007
3359.59738,0.21014
3357.66879,0.21033
3355.74020,0.21039
3353.81162,0.21024
3351.88303,0.21031
3349.95444,0.21043
3348.02586,0.21055
3346.09727,0.21076
3344.16869,0.21077
3342.24010,0.21064
3340.31151,0.21061
3338.38293,0.21069
3336.45434,0.21078
3334.52575,0.21082
3332.59717,0.21071
3330.66858,0.21043
3328.73999,0.21026
3326.81141,0.21044
3324.88282,0.21064
3322.95424,0.21045
3321.02565,0.21028
3319.09706,0.21020
3317.16848,0.21002
3315.23989,0.20987
3313.31130,0.20979
3311.38272,0.20972
3309.45413,0.20965
3307.52555,0.20962
3305.59696,0.20950
3303.66837,0.20926
3301.73979,0.20905
3299.81120,0.20888
3297.88261,0.20879
3295.95403,0.20857
3294.02544,0.20824
3292.09685,0.20796
3290.16827,0.20759
3288.23968,0.20713
3286.31110,0.20666
3284.38251,0.20615
3282.45392,0.20568
3280.52534,0.20516
3278.59675,0.20460
3276.66816,0.20415
3274.73958,0.20370
3272.81099,0.20320
3270.88241,0.20262
3268.95382,0.20180
3267.02523,0.20090
3265.09665,0.20009
3263.16806,0.19929
3261.23947,0.19855
3259.31089,0.19778
3257.38230,0.19684
3255.45371,0.19593
3253.52513,0.19502
3251.59654,0.19414
3249.66796,0.19340
3247.73937,0.19264
3245.81078,0.19188
3243.88220,0.19110
3241.95361,0.19039
3240.02502,0.18966
3238.09644,0.18866
3236.16785,0.18777
3234.23927,0.18723
3232.31068,0.18657
3230.38209,0.18563
3228.45351,0.18488
3226.52492,0.18430
3224.59633,0.18346
3222.66775,0.18257
3220.73916,0.18190
3218.81057,0.18131
3216.88199,0.18066
3214.95340,0.17992
3213.02482,0.17907
3211.09623,0.17820
3209.16764,0.17748
3207.23906,0.17683
3205.31047,0.17616
3203.38188,0.17551
3201.45330,0.17470
3199.52471,0.17371
3197.59612,0.17284
3195.66754,0.17213
3193.73895,0.17132
3191.81037,0.17052
3189.88178,0.16978
3187.95319,0.16893
3186.02461,0.16806
3184.09602,0.16731
3182.16743,0.16649
3180.23885,0.16558
3178.31026,0.16479
3176.38168,0.16399
3174.45309,0.16315
3172.52450,0.16234
3170.59592,0.16146
3168.66733,0.16065
3166.73874,0.15993
3164.81016,0.15918
3162.88157,0.15836
3160.95298,0.15751
3159.02440,0.15670
3157.09581,0.15595
3155.16723,0.15526
3153.23864,0.15461
3151.31005,0.15392
3149.38147,0.15310
3147.45288,0.15229
3145.52429,0.15154
3143.59571,0.15091
3141.66712,0.15040
3139.73854,0.14982
3137.80995,0.14905
3135.88136,0.14832
3133.95278,0.14767
3132.02419,0.14702
3130.09560,0.14656
3128.16702,0.14615
3126.23843,0.14550
3124.30984,0.14490
3122.38126,0.14446
3120.45267,0.14399
3118.52409,0.14345
3116.59550,0.14289
3114.66691,0.14237
3112.73833,0.14182
3110.80974,0.14117
3108.88115,0.14065
3106.95257,0.14013
3105.02398,0.13956
3103.09540,0.13909
3101.16681,0.13851
3099.23822,0.13786
3097.30964,0.13737
3095.38105,0.13688
3093.45246,0.13630
3091.52388,0.13579
3089.59529,0.13542
3087.66670,0.13489
3085.73812,0.13427
3083.80953,0.13373
3081.88095,0.13318
3079.95236,0.13261
3078.02377,0.13196
3076.09519,0.13138
3074.16660,0.13077
3072.23801,0.13009
3070.30943,0.12947
3068.38084,0.12887
3066.45225,0.12830
3064.52367,0.12757
3062.59508,0.12678
3060.66650,0.12617
3058.73791,0.12553
3056.80932,0.12480
3054.88074,0.12416
3052.95215,0.12354
3051.02356,0.12276
3049.09498,0.12195
3047.16639,0.12123
3045.23781,0.12060
3043.30922,0.12003
3041.38063,0.11941
3039.45205,0.11878
3037.52346,0.11824
3035.59487,0.11773
3033.66629,0.11729
3031.73770,0.11680
3029.80911,0.11619
3027.88053,0.11577
3025.95194,0.11547
3024.02336,0.11508
3022.09477,0.11460
3020.16618,0.11418
3018.23760,0.11392
3016.30901,0.11362
3014.38042,0.11344
3012.45184,0.11345
3010.52325,0.11345
3008.59467,0.11353
3006.66608,0.11360
3004.73749,0.11375
3002.80891,0.11401
3000.88032,0.11432
2998.95173,0.11483
2997.02315,0.11546
2995.09456,0.11613
2993.16597,0.11688
2991.23739,0.11769
2989.30880,0.11858
2987.38022,0.11963
2985.45163,0.12101
2983.52304,0.12251
2981.59446,0.12396
2979.66587,0.12561
2977.73728,0.12746
2975.80870,0.12939
2973.88011,0.13139
2971.95153,0.13337
2970.02294,0.13543
2968.09435,0.13771
2966.16577,0.14005
2964.23718,0.14232
2962.30859,0.14451
2960.38001,0.14669
2958.45142,0.14873
2956.52283,0.15055
2954.59425,0.15221
2952.66566,0.15387
2950.73708,0.15570
2948.80849,0.15779
2946.87990,0.16042
2944.95132,0.16375
2943.02273,0.16760
2941.09414,0.17207
2939.16556,0.17703
2937.23697,0.18211
2935.30838,0.18727
2933.37980,0.19243
2931.45121,0.19734
2929.52263,0.20177
2927.59404,0.20543
2925.66545,0.20804
2923.73687,0.20933
2921.80828,0.20878
2919.87969,0.20623
2917.95111,0.20164
2916.02252,0.19446
2914.09394,0.18542
2912.16535,0.17661
2910.23676,0.16925
2908.30818,0.16349
2906.37959,0.15894
2904.45100,0.15509
2902.52242,0.15168
2900.59383,0.14863
2898.66524,0.14587
2896.73666,0.14314
2894.80807,0.14039
2892.87949,0.13776
2890.95090,0.13537
2889.02231,0.13317
2887.09373,0.13101
2885.16514,0.12903
2883.23655,0.12736
2881.30797,0.12610
2879.37938,0.12530
2877.45080,0.12478
2875.52221,0.12474
2873.59362,0.12503
2871.66504,0.12528
2869.73645,0.12562
2867.80786,0.12626
2865.87928,0.12751
2863.95069,0.12965
2862.02210,0.13308
2860.09352,0.13795
2858.16493,0.14366
2856.23635,0.14930
2854.30776,0.15380
2852.37917,0.15577
2850.45059,0.15330
2848.52200,0.14552
2846.59341,0.13452
2844.66483,0.12353
2842.73624,0.11417
2840.80766,0.10644
2838.87907,0.10013
2836.95048,0.09512
2835.02190,0.09113
2833.09331,0.08794
2831.16472,0.08523
2829.23614,0.08286
2827.30755,0.08089
2825.37896,0.07910
2823.45038,0.07745
2821.52179,0.07600
2819.59321,0.07468
2817.66462,0.07344
2815.73603,0.07214
2813.80745,0.07094
2811.87886,0.06990
2809.95027,0.06893
2808.02169,0.06813
2806.09310,0.06728
2804.16451,0.06632
2802.23593,0.06545
2800.30734,0.06465
2798.37876,0.06394
2796.45017,0.06326
2794.52158,0.06254
2792.59300,0.06185
2790.66441,0.06119
2788.73582,0.06050
2786.80724,0.05987
2784.87865,0.05929
2782.95007,0.05868
2781.02148,0.05813
2779.09289,0.05756
2777.16431,0.05702
2775.23572,0.05651
2773.30713,0.05594
2771.37855,0.05546
2769.44996,0.05498
2767.52137,0.05457
2765.59279,0.05417
2763.66420,0.05364
2761.73562,0.05323
2759.80703,0.05287
2757.87844,0.05248
2755.94986,0.05214
2754.02127,0.05181
2752.09268,0.05151
2750.16410,0.05113
2748.23551,0.05071
2746.30693,0.05035
2744.37834,0.05006
2742.44975,0.04976
2740.52117,0.04946
2738.59258,0.04918
2736.66399,0.04881
2734.73541,0.04849
2732.80682,0.04829
2730.87823,0.04798
2728.94965,0.04760
2727.02106,0.04726
2725.09248,0.04689
2723.16389,0.04649
2721.23530,0.04612
2719.30672,0.04577
2717.37813,0.04539
2715.44954,0.04499
2713.52096,0.04457
2711.59237,0.04418
2709.66379,0.04381
2707.73520,0.04345
2705.80661,0.04311
2703.87803,0.04276
2701.94944,0.04244
2700.02085,0.04219
2698.09227,0.04192
2696.16368,0.04164
2694.23509,0.04139
2692.30651,0.04114
2690.37792,0.04093
2688.44934,0.04069
2686.52075,0.04040
2684.59216,0.04015
2682.66358,0.03990
2680.73499,0.03969
2678.80640,0.03945
2676.87782,0.03918
2674.94923,0.03895
2673.02064,0.03868
2671.09206,0.03840
2669.16347,0.03810
2667.23489,0.03780
2665.30630,0.03751
2663.37771,0.03720
2661.44913,0.03691
2659.52054,0.03671
2657.59195,0.03649
2655.66337,0.03619
2653.73478,0.03595
2651.80620,0.03570
2649.87761,0.03538
2647.94902,0.03508
2646.02044,0.03482
2644.09185,0.03459
2642.16326,0.03433
2640.23468,0.03404
2638.30609,0.03378
2636.37750,0.03352
2634.44892,0.03325
2632.52033,0.03298
2630.59175,0.03272
2628.66316,0.03245
2626.73457,0.03224
2624.80599,0.03206
2622.87740,0.03180
2620.94881,0.03149
2619.02023,0.03122
2617.09164,0.03104
2615.16306,0.03074
2613.23447,0.03038
2611.30588,0.03007
2609.37730,0.02978
2607.44871,0.02956
2605.52012,0.02927
2603.59154,0.02896
2601.66295,0.02870
2599.73436,0.02842
2597.80578,0.02811
2595.87719,0.02782
2593.94861,0.02757
2592.02002,0.02732
2590.09143,0.02709
2588.16285,0.02685
2586.23426,0.02658
2584.30567,0.02625
2582.37709,0.02593
2580.44850,0.02571
2578.51991,0.02535
2576.59133,0.02504
2574.66274,0.02489
2572.73416,0.02472
2570.80557,0.02455
2568.87698,0.02431
2566.94840,0.02402
2565.01981,0.02371
2563.09122,0.02346
2561.16264,0.02328
2559.23405,0.02307
2557.30547,0.02285
2555.37688,0.02263
2553.44829,0.02248
2551.51971,0.02224
2549.59112,0.02194
2547.66253,0.02177
2545.73395,0.02158
2543.80536,0.02137
2541.87677,0.02119
2539.94819,0.02095
2538.01960,0.02072
2536.09102,0.02060
2534.16243,0.02048
2532.23384,0.02026
2530.30526,0.02005
2528.37667,0.01984
2526.44808,0.01963
2524.51950,0.01950
2522.59091,0.01935
2520.66233,0.01915
2518.73374,0.01887
2516.80515,0.01861
2514.87657,0.01842
2512.94798,0.01824
2511.01939,0.01804
2509.09081,0.01782
2507.16222,0.01759
2505.23363,0.01740
2503.30505,0.01727
2501.37646,0.01710
2499.44788,0.01683
2497.51929,0.01649
2495.59070,0.01622
2493.66212,0.01606
2491.73353,0.01586
2489.80494,0.01567
2487.87636,0.01552
2485.94777,0.01531
2484.01919,0.01509
2482.09060,0.01483
2480.16201,0.01458
2478.23343,0.01439
2476.30484,0.01421
2474.37625,0.01400
2472.44767,0.01377
2470.51908,0.01361
2468.59049,0.01344
2466.66191,0.01317
2464.73332,0.01294
2462.80474,0.01275
2460.87615,0.01253
2458.94756,0.01240
2457.01898,0.01226
2455.09039,0.01202
2453.16180,0.01178
2451.23322,0.01153
2449.30463,0.01134
2447.37604,0.01117
2445.44746,0.01100
2443.51887,0.01079
2441.59029,0.01054
2439.66170,0.01033
2437.73311,0.01012
2435.80453,0.00989
2433.87594,0.00972
2431.94735,0.00960
2430.01877,0.00938
2428.09018,0.00909
2426.16160,0.00890
2424.23301,0.00877
2422.30442,0.00857
2420.37584,0.00831
2418.44725,0.00809
2416.51866,0.00790
2414.59008,0.00773
2412.66149,0.00758
2410.73290,0.00737
2408.80432,0.00721
2406.87573,0.00707
2404.94715,0.00686
2403.01856,0.00670
2401.08997,0.00658
2399.16139,0.00647
2397.23280,0.00629
2395.30421,0.00602
2393.37563,0.00584
2391.44704,0.00571
2389.51846,0.00550
2387.58987,0.00532
2385.66128,0.00515
2383.73270,0.00501
2381.80411,0.00492
2379.87552,0.00478
2377.94694,0.00457
2376.01835,0.00435
2374.08976,0.00421
2372.16118,0.00414
2370.23259,0.00410
2368.30401,0.00406
2366.37542,0.00392
2364.44683,0.00375
2362.51825,0.00365
2360.58966,0.00352
2358.66107,0.00338
2356.73249,0.00328
2354.80390,0.00315
2352.87532,0.00300
2350.94673,0.00283
2349.01814,0.00272
2347.08956,0.00267
2345.16097,0.00263
2343.23238,0.00264
2341.30380,0.00264
2339.37521,0.00265
2337.44662,0.00260
2335.51804,0.00240
2333.58945,0.00221
2331.66087,0.00205
2329.73228,0.00194
2327.80369,0.00189
2325.87511,0.00185
2323.94652,0.00176
2322.01793,0.00161
2320.08935,0.00151
2318.16076,0.00137
2316.23217,0.00128
2314.30359,0.00125
2312.37500,0.00117
2310.44642,0.00107
2308.51783,0.00092
2306.58924,0.00081
2304.66066,0.00072
2302.73207,0.00060
2300.80348,0.00055
2298.87490,0.00051
2296.94631,0.00043
2295.01773,0.00037
2293.08914,0.00037
2291.16055,0.00036
2289.23197,0.00032
2287.30338,0.00027
2285.37479,0.00024
2283.44621,0.00024
2281.51762,0.00021
2279.58903,0.00014
2277.66045,0.00009
2275.73186,0.00010
2273.80328,0.00007
2271.87469,-0.00001
2269.94610,-0.00001
2268.01752,0.00000
2266.08893,-0.00006
2264.16034,-0.00009
2262.23176,-0.00007
2260.30317,-0.00016
2258.37459,-0.00020
2256.44600,-0.00015
2254.51741,-0.00017
2252.58883,-0.00014
2250.66024,-0.00009
2248.73165,-0.00010
2246.80307,-0.00014
2244.87448,-0.00011
2242.94589,-0.00004
2241.01731,-0.00004
2239.08872,0.00000
2237.16014,-0.00002
2235.23155,-0.00009
2233.30296,-0.00006
2231.37438,-0.00002
2229.44579,0.00002
2227.51720,0.00000
2225.58862,-0.00004
2223.66003,-0.00007
2221.73145,-0.00009
2219.80286,-0.00011
2217.87427,-0.00011
2215.94569,-0.00007
2214.01710,-0.00001
2212.08851,0.00001
2210.15993,-0.00007
2208.23134,-0.00010
2206.30275,-0.00005
2204.37417,-0.00002
2202.44558,0.00003
2200.51700,0.00005
2198.58841,0.00006
2196.65982,0.00003
2194.73124,-0.00003
2192.80265,0.00000
2190.87406,0.00006
2188.94548,0.00012
2187.01689,0.00010
2185.08830,0.00000
2183.15972,-0.00000
2181.23113,0.00008
2179.30255,0.00012
2177.37396,0.00011
2175.44537,0.00010
2173.51679,0.00014
2171.58820,0.00008
2169.65961,-0.00012
2167.73103,-0.00004
2165.80244,0.00017
2163.87386,0.00022
2161.94527,0.00025
2160.01668,0.00021
2158.08810,0.00014
2156.15951,0.00014
2154.23092,0.00013
2152.30234,0.00006
2150.37375,0.00003
2148.44516,0.00010
2146.51658,0.00018
2144.58799,0.00019
2142.65941,0.00013
2140.73082,0.00009
2138.80223,0.00020
2136.87365,0.00031
2134.94506,0.00030
2133.01647,0.00024
2131.08789,0.00015
2129.15930,0.00005
2127.23072,0.00000
2125.30213,-0.00000
2123.37354,0.00001
2121.44496,-0.00002
2119.51637,-0.00011
2117.58778,-0.00009
2115.65920,-0.00004
2113.73061,-0.00005
2111.80202,-0.00007
2109.87344,-0.00014
2107.94485,-0.00017
2106.01627,-0.00012
2104.08768,-0.00007
2102.15909,-0.00006
2100.23051,-0.00008
2098.30192,-0.00008
2096.37333,-0.00009
2094.44475,-0.00014
2092.51616,-0.00009
2090.58758,-0.00002
2088.65899,-0.00004
2086.73040,-0.00002
2084.80182,0.00001
2082.87323,0.00005
2080.94464,0.00010
2079.01606,0.00004
2077.08747,0.00000
2075.15888,-0.00004
2073.23030,-0.00001
2071.30171,0.00006
2069.37313,0.00002
2067.44454,-0.00009
2065.51595,-0.00014
2063.58737,-0.00014
2061.65878,-0.00006
2059.73019,-0.00003
2057.80161,-0.00009
2055.87302,-0.00009
2053.94443,-0.00005
2052.01585,-0.00003
2050.08726,0.00004
2048.15868,0.00013
2046.23009,0.00024
2044.30150,0.00036
2042.37292,0.00041
2040.44433,0.00056
2038.51574,0.00085
2036.58716,0.00111
2034.65857,0.00130
2032.72999,0.00139
2030.80140,0.00152
2028.87281,0.00162
2026.94423,0.00164
2025.01564,0.00170
2023.08705,0.00175
2021.15847,0.00175
2019.22988,0.00181
2017.30129,0.00188
2015.37271,0.00202
2013.44412,0.00223
2011.51554,0.00242
2009.58695,0.00258
2007.65836,0.00271
2005.72978,0.00286
2003.80119,0.00302
2001.87260,0.00308
1999.94402,0.00304
1998.01543,0.00300
1996.08685,0.00302
1994.15826,0.00303
1992.22967,0.00302
1990.30109,0.00296
1988.37250,0.00280
1986.44391,0.00269
1984.51533,0.00263
1982.58674,0.00252
1980.65815,0.00244
1978.72957,0.00239
1976.80098,0.00232
1974.87240,0.00224
1972.94381,0.00209
1971.01522,0.00192
1969.08664,0.00183
1967.15805,0.00168
1965.22946,0.00143
1963.30088,0.00122
1961.37229,0.00111
1959.44371,0.00101
1957.51512,0.00081
1955.58653,0.00070
1953.65795,0.00064
1951.72936,0.00051
1949.80077,0.00047
1947.87219,0.00043
1945.94360,0.00035
1944.01501,0.00030
1942.08643,0.00022
1940.15784,0.00011
1938.22926,0.00005
1936.30067,0.00004
1934.37208,0.00002
1932.44350,0.00001
1930.51491,-0.00005
1928.58632,-0.00013
1926.65774,-0.00010
1924.72915,0.00000
1922.80056,-0.00002
1920.87198,-0.00004
1918.94339,0.00013
1917.01481,0.00043
1915.08622,0.00064
1913.15763,0.00088
1911.22905,0.00127
1909.30046,0.00176
1907.37187,0.00232
1905.44329,0.00285
1903.51470,0.00328
1901.58612,0.00370
1899.65753,0.00416
1897.72894,0.00461
1895.80036,0.00511
1893.87177,0.00556
1891.94318,0.00600
1890.01460,0.00649
1888.08601,0.00679
1886.15742,0.00701
1884.22884,0.00721
1882.30025,0.00736
1880.37167,0.00750
1878.44308,0.00764
1876.51449,0.00776
1874.58591,0.00785
1872.65732,0.00791
1870.72873,0.00789
1868.80015,0.00782
1866.87156,0.00757
1864.94298,0.00721
1863.01439,0.00682
1861.08580,0.00623
1859.15722,0.00560
1857.22863,0.00486
1855.30004,0.00403
1853.37146,0.00325
1851.44287,0.00255
1849.51428,0.00196
1847.58570,0.00146
1845.65711,0.00112
1843.72853,0.00084
1841.79994,0.00051
1839.87135,0.00019
1837.94277,0.00000
1836.01418,-0.00018
1834.08559,-0.00037
1832.15701,-0.00048
1830.22842,-0.00042
1828.29984,-0.00039
1826.37125,-0.00032
1824.44266,-0.00010
1822.51408,0.00014
1820.58549,0.00038
1818.65690,0.00079
1816.72832,0.00133
1814.79973,0.00186
1812.87114,0.00244
1810.94256,0.00310
1809.01397,0.00384
1807.08539,0.00469
1805.15680,0.00569
1803.22821,0.00689
1801.29963,0.00820
1799.37104,0.00943
1797.44245,0.01077
1795.51387,0.01219
1793.58528,0.01376
1791.65669,0.01560
1789.72811,0.01733
1787.79952,0.01896
1785.87094,0.02072
1783.94235,0.02267
1782.01376,0.02461
1780.08518,0.02648
1778.15659,0.02838
1776.22800,0.03018
1774.29942,0.03198
1772.37083,0.03389
1770.44225,0.03575
1768.51366,0.03744
1766.58507,0.03915
1764.65649,0.04097
1762.72790,0.04290
1760.79931,0.04501
1758.87073,0.04712
1756.94214,0.04953
1755.01355,0.05216
1753.08497,0.05491
1751.15638,0.05817
1749.22780,0.06161
1747.29921,0.06520
1745.37062,0.06907
1743.44204,0.07316
1741.51345,0.07736
1739.58486,0.08166
1737.65628,0.08553
1735.72769,0.08886
1733.79911,0.09240
1731.87052,0.09536
1729.94193,0.09781
1728.01335,0.10037
1726.08476,0.10289
1724.15617,0.10549
1722.22759,0.10822
1720.29900,0.11100
1718.37041,0.11378
1716.44183,0.11659
1714.51324,0.11898
1712.58466,0.12095
1710.65607,0.12297
1708.72748,0.12477
1706.79890,0.12667
1704.87031,0.12879
1702.94172,0.13087
1701.01314,0.13331
1699.08455,0.13605
1697.15596,0.13856
1695.22738,0.14131
1693.29879,0.14412
1691.37021,0.14670
1689.44162,0.14953
1687.51303,0.15224
1685.58445,0.15512
1683.65586,0.15840
1681.72727,0.16126
1679.79869,0.16396
1677.87010,0.16670
1675.94152,0.16956
1674.01293,0.17235
1672.08434,0.17474
1670.15576,0.17697
1668.22717,0.17917
1666.29858,0.18098
1664.37000,0.18254
1662.44141,0.18395
1660.51282,0.18495
1658.58424,0.18583
1656.65565,0.18633
1654.72707,0.18663
1652.79848,0.18683
1650.86989,0.18649
1648.94131,0.18608
1647.01272,0.18589
1645.08413,0.18576
1643.15555,0.18531
1641.22696,0.18501
1639.29838,0.18488
1637.36979,0.18475
1635.44120,0.18461
1633.51262,0.18419
1631.58403,0.18354
1629.65544,0.18246
1627.72686,0.18112
1625.79827,0.17943
1623.86968,0.17731
1621.94110,0.17499
1620.01251,0.17277
1618.08393,0.17076
1616.15534,0.16845
1614.22675,0.16610
1612.29817,0.16380
1610.36958,0.16174
1608.44099,0.15975
1606.51241,0.15777
1604.58382,0.15596
1602.65524,0.15407
1600.72665,0.15233
1598.79806,0.15052
1596.86948,0.14881
1594.94089,0.14717
1593.01230,0.14543
1591.08372,0.14366
1589.15513,0.14168
1587.22654,0.13976
1585.29796,0.13779
1583.36937,0.13596
1581.44079,0.13415
1579.51220,0.13232
1577.58361,0.13084
1575.65503,0.12954
1573.72644,0.12839
1571.79785,0.12734
1569.86927,0.12665
1567.94068,0.12614
1566.01209,0.12579
1564.08351,0.12570
1562.15492,0.12568
1560.22634,0.12610
1558.29775,0.12668
1556.36916,0.12682
1554.44058,0.12683
1552.51199,0.12681
1550.58340,0.12677
1548.65482,0.12675
1546.72623,0.12667
1544.79765,0.12641
1542.86906,0.12604
1540.94047,0.12560
1539.01189,0.12481
1537.08330,0.12370
1535.15471,0.12267
1533.22613,0.12170
1531.29754,0.12056
1529.36895,0.11929
1527.44037,0.11798
1525.51178,0.11674
1523.58320,0.11562
1521.65461,0.11479
1519.72602,0.11424
1517.79744,0.11360
1515.86885,0.11265
1513.94026,0.11072
1512.01168,0.10809
1510.08309,0.10536
1508.15451,0.10253
1506.22592,0.09943
1504.29733,0.09587
1502.36875,0.09226
1500.44016,0.08875
1498.51157,0.08538
1496.58299,0.08212
1494.65440,0.07890
1492.72581,0.07622
1490.79723,0.07405
1488.86864,0.07219
1486.94006,0.07072
1485.01147,0.06967
1483.08288,0.06927
1481.15430,0.06966
1479.22571,0.07078
1477.29712,0.07264
1475.36854,0.07558
1473.43995,0.08010
1471.51137,0.08589
1469.58278,0.09167
1467.65419,0.09624
1465.72561,0.09898
1463.79702,0.10034
1461.86843,0.10105
1459.93985,0.10175
1458.01126,0.10286
1456.08267,0.10390
1454.15409,0.10405
1452.22550,0.10360
1450.29692,0.10321
1448.36833,0.10293
1446.43974,0.10278
1444.51116,0.10262
1442.58257,0.10234
1440.65398,0.10224
1438.72540,0.10226
1436.79681,0.10248
1434.86822,0.10259
1432.93964,0.10251
1431.01105,0.10250
1429.08247,0.10254
1427.15388,0.10269
1425.22529,0.10302
1423.29671,0.10358
1421.36812,0.10409
1419.43953,0.10465
1417.51095,0.10512
1415.58236,0.10530
1413.65378,0.10558
1411.72519,0.10585
1409.79660,0.10619
1407.86802,0.10651
1405.93943,0.10672
1404.01084,0.10673
1402.08226,0.10626
1400.15367,0.10558
1398.22508,0.10454
1396.29650,0.10307
1394.36791,0.10147
1392.43933,0.09996
1390.51074,0.09877
1388.58215,0.09790
1386.65357,0.09685
1384.72498,0.09577
1382.79639,0.09568
1380.86781,0.09619
1378.93922,0.09632
1377.01064,0.09583
1375.08205,0.09474
1373.15346,0.09344
1371.22488,0.09214
1369.29629,0.09081
1367.36770,0.08936
1365.43912,0.08772
1363.51053,0.08619
1361.58194,0.08482
1359.65336,0.08355
1357.72477,0.08239
1355.79619,0.08133
1353.86760,0.08040
1351.93901,0.07962
1350.01043,0.07895
1348.08184,0.07835
1346.15325,0.07768
1344.22467,0.07696
1342.29608,0.07648
1340.36750,0.07601
1338.43891,0.07543
1336.51032,0.07489
1334.58174,0.07428
1332.65315,0.07378
1330.72456,0.07343
1328.79598,0.07311
1326.86739,0.07285
1324.93880,0.07254
1323.01022,0.07228
1321.08163,0.07203
1319.15305,0.07167
1317.22446,0.07138
1315.29587,0.07119
1313.36729,0.07098
1311.43870,0.07071
1309.51011,0.07050
1307.58153,0.07031
1305.65294,0.06999
1303.72435,0.06973
1301.79577,0.06963
1299.86718,0.06971
1297.93860,0.06996
1296.01001,0.07026
1294.08142,0.07067
1292.15284,0.07129
1290.22425,0.07210
1288.29566,0.07316
1286.36708,0.07441
1284.43849,0.07589
1282.50991,0.07749
1280.58132,0.07890
1278.65273,0.08042
1276.72415,0.08230
1274.79556,0.08424
1272.86697,0.08612
1270.93839,0.08813
1269.00980,0.09038
1267.08121,0.09282
1265.15263,0.09540
1263.22404,0.09826
1261.29546,0.10153
1259.36687,0.10525
1257.43828,0.10970
1255.50970,0.11484
1253.58111,0.12029
1251.65252,0.12596
1249.72394,0.13177
1247.79535,0.13754
1245.86677,0.14317
1243.93818,0.14851
1242.00959,0.15334
1240.08101,0.15794
1238.15242,0.16233
1236.22383,0.16627
1234.29525,0.16984
1232.36666,0.17309
1230.43807,0.17616
1228.50949,0.17896
1226.58090,0.18139
1224.65232,0.18389
1222.72373,0.18633
1220.79514,0.18849
1218.86656,0.19078
1216.93797,0.19320
1215.00938,0.19547
1213.08080,0.19764
1211.15221,0.19987
1209.22363,0.20213
1207.29504,0.20435
1205.36645,0.20637
1203.43787,0.20821
1201.50928,0.21013
1199.58069,0.21206
1197.65211,0.21375
1195.72352,0.21509
1193.79493,0.21650
1191.86635,0.21814
1189.93776,0.21975
1188.00918,0.22145
1186.08059,0.22317
1184.15200,0.22497
1182.22342,0.22701
1180.29483,0.22907
1178.36624,0.23142
1176.43766,0.23419
1174.50907,0.23698
1172.58048,0.23955
1170.65190,0.24210
1168.72331,0.24490
1166.79473,0.24774
1164.86614,0.25049
1162.93755,0.25305
1161.00897,0.25513
1159.08038,0.25654
1157.15179,0.25763
1155.22321,0.25881
1153.29462,0.26033
1151.36604,0.26221
1149.43745,0.26430
1147.50886,0.26657
1145.58028,0.26897
1143.65169,0.27172
1141.72310,0.27495
1139.79452,0.27828
1137.86593,0.28180
1135.93734,0.28553
1134.00876,0.28963
1132.08017,0.29398
1130.15159,0.29808
1128.22300,0.30293
1126.29441,0.30869
1124.36583,0.31423
1122.43724,0.31992
1120.50865,0.32605
1118.58007,0.33230
1116.65148,0.33847
1114.72290,0.34474
1112.79431,0.35136
1110.86572,0.35779
1108.93714,0.36402
1107.00855,0.36998
1105.07996,0.37521
1103.15138,0.37977
1101.22279,0.38326
1099.29420,0.38559
1097.36562,0.38720
1095.43703,0.38821
1093.50845,0.38891
1091.57986,0.38924
1089.65127,0.38875
1087.72269,0.38791
1085.79410,0.38730
1083.86551,0.38644
1081.93693,0.38513
1080.00834,0.38371
1078.07976,0.38239
1076.15117,0.38074
1074.22258,0.37904
1072.29400,0.37802
1070.36541,0.37708
1068.43682,0.37615
1066.50824,0.37549
1064.57965,0.37509
1062.65106,0.37435
1060.72248,0.37268
1058.79389,0.37095
1056.86531,0.36922
1054.93672,0.36760
1053.00813,0.36649
1051.07955,0.36553
1049.15096,0.36484
1047.22237,0.36473
1045.29379,0.36566
1043.36520,0.36743
1041.43661,0.36945
1039.50803,0.37197
1037.57944,0.37413
1035.65086,0.37479
1033.72227,0.37443
1031.79368,0.37367
1029.86510,0.37243
1027.93651,0.37024
1026.00792,0.36708
1024.07934,0.36333
1022.15075,0.35928
1020.22217,0.35559
1018.29358,0.35196
1016.36499,0.34795
1014.43641,0.34426
1012.50782,0.34074
1010.57923,0.33704
1008.65065,0.33311
1006.72206,0.32879
1004.79347,0.32409
1002.86489,0.31878
1000.93630,0.31308
999.00772,0.30708
997.07913,0.30082
995.15054,0.29470
993.22196,0.28849
991.29337,0.28192
989.36478,0.27505
987.43620,0.26776
985.50761,0.25986
983.57903,0.25141
981.65044,0.24265
979.72185,0.23346
977.79327,0.22353
975.86468,0.21330
973.93609,0.20316
972.00751,0.19325
970.07892,0.18395
968.15033,0.17510
966.22175,0.16661
964.29316,0.15877
962.36458,0.15187
960.43599,0.14584
958.50740,0.14028
956.57882,0.13531
954.65023,0.13106
952.72164,0.12754
950.79306,0.12449
948.86447,0.12181
946.93589,0.11985
945.00730,0.11830
943.07871,0.11690
941.15013,0.11577
939.22154,0.11469
937.29295,0.11340
935.36437,0.11208
933.43578,0.11086
931.50719,0.10964
929.57861,0.10857
927.65002,0.10766
925.72144,0.10698
923.79285,0.10639
921.86426,0.10593
919.93568,0.10592
918.00709,0.10577
916.07850,0.10539
914.14992,0.10467
912.22133,0.10288
910.29274,0.09981
908.36416,0.09533
906.43557,0.08998
904.50699,0.08413
902.57840,0.07782
900.64981,0.07166
898.72123,0.06577
896.79264,0.06041
894.86405,0.05543
892.93547,0.05096
891.00688,0.04736
889.07830,0.04406
887.14971,0.04084
885.22112,0.03746
883.29254,0.03418
881.36395,0.03129
879.43536,0.02817
877.50678,0.02506
875.57819,0.02204
873.64960,0.01906
871.72102,0.01636
869.79243,0.01355
867.86385,0.01057
865.93526,0.00789
864.00667,0.00581
862.07809,0.00392
860.14950,0.00219
858.22091,0.00086
856.29233,0.00000
854.36374,-0.00047
852.43516,-0.00067
850.50657,-0.00046
848.57798,0.00015
846.64940,0.00118
844.72081,0.00314
842.79222,0.00558
840.86364,0.00842
838.93505,0.01162
837.00646,0.01483
835.07788,0.01830
833.14929,0.02159
831.22071,0.02411
829.29212,0.02580
827.36353,0.02722
825.43495,0.02848
823.50636,0.02917
821.57777,0.02988
819.64919,0.03079
817.72060,0.03160
815.79201,0.03291
813.86343,0.03512
811.93484,0.03800
810.00626,0.04222
808.07767,0.04834
806.14908,0.05548
804.22050,0.06237
802.29191,0.06799
800.36332,0.07090
798.43474,0.06985
796.50615,0.06552
794.57757,0.06007
792.64898,0.05509
790.72039,0.05150
788.79181,0.04921
786.86322,0.04774
784.93463,0.04765
783.00605,0.04900
781.07746,0.04981
779.14887,0.04786
777.22029,0.04336
775.29170,0.03788
773.36312,0.03221
771.43453,0.02726
769.50594,0.02378
767.57736,0.02167
765.64877,0.02063
763.72018,0.02018
761.79160,0.02023
759.86301,0.02076
757.93443,0.02140
756.00584,0.02171
754.07725,0.02161
752.14867,0.02105
750.22008,0.01967
748.29149,0.01820
746.36291,0.01674
744.43432,0.01475
742.50573,0.01277
740.57715,0.01033
738.64856,0.00797
736.71998,0.00646
734.79139,0.00503
732.86280,0.00392
730.93422,0.00304
729.00563,0.00309
727.07704,0.00405
725.14846,0.00390
723.21987,0.00337
721.29129,0.00344
719.36270,0.00307
717.43411,0.00196
715.50553,0.00064
713.57694,0.00000
711.64835,0.00043
709.71977,0.00159
707.79118,0.00270
705.86259,0.00394
703.93401,0.00616
702.00542,0.00886
700.07684,0.01215
698.14825,0.01672
696.21966,0.02026
694.29108,0.01981
692.36249,0.01686
690.43390,0.01374
688.50532,0.01072
686.57673,0.00831
684.64814,0.00677
682.71956,0.00595
680.79097,0.00551
678.86239,0.00468
676.93380,0.00349
675.00521,0.00260
673.07663,0.00212
671.14804,0.00183
669.21945,0.00134
667.29087,0.00064
665.36228,0.00033
663.43370,0.00019
661.50511,0.00018
659.57652,0.00000
657.64794,-0.00054
655.71935,-0.00031
653.79076,0.00024
651.86218,0.00051
649.93359,0.00041
648.00500,0.00088
646.07642,0.00169
644.14783,0.00143
642.21925,0.00178
640.29066,0.00292
638.36207,0.00365
636.43349,0.00400
634.50490,0.00418
632.57631,0.00491
630.64773,0.00514
628.71914,0.00522
626.79056,0.00573
624.86197,0.00609
622.93338,0.00739
621.00480,0.00847
619.07621,0.00866
617.14762,0.00883
615.21904,0.00919
613.29045,0.01058
611.36186,0.01183
609.43328,0.01288
607.50469,0.01447
605.57611,0.01575
603.64752,0.01759
601.71893,0.01945
599.79035,0.02092
597.86176,0.02348
595.93317,0.02627
594.00459,0.02840
592.07600,0.03129
590.14742,0.03607
588.21883,0.04050
586.29024,0.04422
584.36166,0.04844
582.43307,0.05118
580.50448,0.05418
578.57590,0.05873
576.64731,0.06357
574.71872,0.06940
572.79014,0.07484
570.86155,0.07949
568.93297,0.08463
567.00438,0.09040
565.07579,0.09654
563.14721,0.10215
561.21862,0.10697
559.29003,0.11185
557.36145,0.11567
555.43286,0.11835
553.50427,0.12349
551.57569,0.12864
549.64710,0.13166
547.71852,0.13561
545.78993,0.14055
543.86134,0.14763
541.93276,0.15480
540.00417,0.15882
538.07558,0.16276
536.14700,0.16750
534.21841,0.17106
532.28983,0.17368
530.36124,0.17513
528.43265,0.17422
526.50407,0.17230
524.57548,0.16997
522.64689,0.16554
520.71831,0.16027
518.78972,0.15530
516.86113,0.14906
514.93255,0.14469
513.00396,0.14175
511.07538,0.13584
509.14679,0.13037
507.21820,0.12715
505.28962,0.12638
503.36103,0.12878
501.43244,0.13234
499.50386,0.13647
497.57527,0.14112
495.64669,0.14766
493.71810,0.15557
491.78951,0.16477
489.86093,0.17656
487.93234,0.18850
486.00375,0.20066
484.07517,0.21456
482.14658,0.22756
480.21799,0.23800
478.28941,0.24945
476.36082,0.25676
474.43224,0.25734
472.50365,0.25944
470.57506,0.25872
468.64648,0.24920
466.71789,0.23568
464.78930,0.22457
462.86072,0.21323
460.93213,0.20175
459.00355,0.18987
457.07496,0.17762
455.14637,0.16554
453.21779,0.14914
451.28920,0.13935
449.36061,0.13507
447.43203,0.12775
445.50344,0.12062
443.57485,0.11454
441.64627,0.11087
439.71768,0.10603
437.78910,0.09954
435.86051,0.09432
433.93192,0.09352
432.00334,0.09466
430.07475,0.09332
428.14616,0.08924
426.21758,0.07906
424.28899,0.06994
422.36040,0.06652
420.43182,0.06565
418.50323,0.06181
416.57465,0.05777
414.64606,0.05343
412.71747,0.04349
410.78889,0.03503
408.86030,0.02488
406.93171,0.01888
405.00313,0.01545
403.07454,0.00957
401.14596,0.00437
399.21737,0.00000
