3747.24323,0.00027
3745.31464,0.00000
3743.38605,0.00172
3741.45747,0.00259
3739.52888,0.00211
3737.60030,0.00242
3735.67171,0.00322
3733.74312,0.00382
3731.81454,0.00428
3729.88595,0.00497
3727.95736,0.00563
3726.02878,0.00649
3724.10019,0.00775
3722.17161,0.00898
3720.24302,0.01078
3718.31443,0.01278
3716.38585,0.01488
3714.45726,0.01702
3712.52867,0.01972
3710.60009,0.02380
3708.67150,0.02752
3706.74291,0.03101
3704.81433,0.03440
3702.88574,0.03781
3700.95716,0.04145
3699.02857,0.04383
3697.09998,0.04511
3695.17140,0.04576
3693.24281,0.04593
3691.31422,0.04609
3689.38564,0.04726
3687.45705,0.04969
3685.52846,0.05173
3683.59988,0.05396
3681.67129,0.05703
3679.74271,0.06045
3677.81412,0.06385
3675.88553,0.06851
3673.95695,0.07458
3672.02836,0.07884
3670.09977,0.08360
3668.17119,0.08954
3666.24260,0.09439
3664.31402,0.09924
3662.38543,0.10413
3660.45684,0.10921
3658.52826,0.11366
3656.59967,0.11812
3654.67108,0.12303
3652.74250,0.12647
3650.81391,0.12985
3648.88532,0.13413
3646.95674,0.13822
3645.02815,0.14153
3643.09957,0.14468
3641.17098,0.14801
3639.24239,0.15105
3637.31381,0.15442
3635.38522,0.15795
3633.45663,0.16147
3631.52805,0.16440
3629.59946,0.16718
3627.67088,0.17065
3625.74229,0.17247
3623.81370,0.17315
3621.88512,0.17362
3619.95653,0.17321
3618.02794,0.17241
3616.09936,0.17090
3614.17077,0.16901
3612.24218,0.16743
3610.31360,0.16594
3608.38501,0.16484
3606.45643,0.16385
3604.52784,0.16270
3602.59925,0.16145
3600.67067,0.16037
3598.74208,0.15961
3596.81349,0.15885
3594.88491,0.15843
3592.95632,0.15818
3591.02774,0.15767
3589.09915,0.15730
3587.17056,0.15753
3585.24198,0.15796
3583.31339,0.15811
3581.38480,0.15844
3579.45622,0.15908
3577.52763,0.15976
3575.59904,0.16047
3573.67046,0.16129
3571.74187,0.16210
3569.81329,0.16283
3567.88470,0.16405
3565.95611,0.16559
3564.02753,0.16674
3562.09894,0.16760
3560.17035,0.16849
3558.24177,0.16952
3556.31318,0.17055
3554.38459,0.17152
3552.45601,0.17274
3550.52742,0.17428
3548.59884,0.17563
3546.67025,0.17667
3544.74166,0.17782
3542.81308,0.17899
3540.88449,0.18011
3538.95590,0.18135
3537.02732,0.18254
3535.09873,0.18378
3533.17015,0.18499
3531.24156,0.18624
3529.31297,0.18768
3527.38439,0.18897
3525.45580,0.19009
3523.52721,0.19117
3521.59863,0.19241
3519.67004,0.19368
3517.74145,0.19467
3515.81287,0.19566
3513.88428,0.19703
3511.95570,0.19831
3510.02711,0.19927
3508.09852,0.20046
3506.16994,0.20157
3504.24135,0.20263
3502.31276,0.20402
3500.38418,0.20544
3498.45559,0.20663
3496.52701,0.20750
3494.59842,0.20863
3492.66983,0.20998
3490.74125,0.21099
3488.81266,0.21197
3486.88407,0.21315
3484.95549,0.21435
3483.02690,0.21532
3481.09831,0.21621
3479.16973,0.21725
3477.24114,0.21830
3475.31256,0.21929
3473.38397,0.22018
3471.45538,0.22112
3469.52680,0.22215
3467.59821,0.22311
3465.66962,0.22411
3463.74104,0.22497
3461.81245,0.22570
3459.88386,0.22652
3457.95528,0.22743
3456.02669,0.22847
3454.09811,0.22936
3452.16952,0.23008
3450.24093,0.23095
3448.31235,0.23183
3446.38376,0.23269
3444.45517,0.23316
3442.52659,0.23351
3440.59800,0.23442
3438.66942,0.23528
3436.74083,0.23604
3434.81224,0.23687
3432.88366,0.23762
3430.95507,0.23835
3429.02648,0.23885
3427.09790,0.23925
3425.16931,0.23982
3423.24072,0.24050
3421.31214,0.24106
3419.38355,0.24161
3417.45497,0.24232
3415.52638,0.24294
3413.59779,0.24345
3411.66921,0.24381
3409.74062,0.24411
3407.81203,0.24456
3405.88345,0.24493
3403.95486,0.24530
3402.02628,0.24577
3400.09769,0.24611
3398.16910,0.24639
3396.24052,0.24676
3394.31193,0.24704
3392.38334,0.24747
3390.45476,0.24783
3388.52617,0.24781
3386.59758,0.24811
3384.66900,0.24859
3382.74041,0.24873
3380.81183,0.24907
3378.88324,0.24946
3376.95465,0.24933
3375.02607,0.24927
3373.09748,0.24954
3371.16889,0.24977
3369.24031,0.25001
3367.31172,0.25032
3365.38314,0.25058
3363.45455,0.25072
3361.52596,0.25083
3359.59738,0.25103
3357.66879,0.25103
3355.74020,0.25102
3353.81162,0.25128
3351.88303,0.25141
3349.95444,0.25142
3348.02586,0.25142
3346.09727,0.25141
3344.16869,0.25163
3342.24010,0.25184
3340.31151,0.25198
3338.38293,0.25205
3336.45434,0.25192
3334.52575,0.25199
3332.59717,0.25188
3330.66858,0.25157
3328.73999,0.25159
3326.81141,0.25161
3324.88282,0.25164
3322.95424,0.25170
3321.02565,0.25145
3319.09706,0.25114
3317.16848,0.25102
3315.23989,0.25098
3313.31130,0.25089
3311.38272,0.25069
3309.45413,0.25043
3307.52555,0.25042
3305.59696,0.25042
3303.66837,0.25011
3301.73979,0.24968
3299.81120,0.24940
3297.88261,0.24928
3295.95403,0.24902
3294.02544,0.24867
3292.09685,0.24831
3290.16827,0.24793
3288.23968,0.24749
3286.31110,0.24696
3284.38251,0.24654
3282.45392,0.24599
3280.52534,0.24530
3278.59675,0.24456
3276.66816,0.24377
3274.73958,0.24305
3272.81099,0.24214
3270.88241,0.24122
3268.95382,0.24048
3267.02523,0.23952
3265.09665,0.23847
3263.16806,0.23751
3261.23947,0.23642
3259.31089,0.23527
3257.38230,0.23427
3255.45371,0.23323
3253.52513,0.23208
3251.59654,0.23107
3249.66796,0.22999
3247.73937,0.22872
3245.81078,0.22773
3243.88220,0.22690
3241.95361,0.22585
3240.02502,0.22478
3238.09644,0.22384
3236.16785,0.22297
3234.23927,0.22205
3232.31068,0.22120
3230.38209,0.22041
3228.45351,0.21949
3226.52492,0.21856
3224.59633,0.21757
3222.66775,0.21649
3220.73916,0.21556
3218.81057,0.21469
3216.88199,0.21376
3214.95340,0.21283
3213.02482,0.21199
3211.09623,0.21115
3209.16764,0.21022
3207.23906,0.20929
3205.31047,0.20840
3203.38188,0.20751
3201.45330,0.20650
3199.52471,0.20544
3197.59612,0.20448
3195.66754,0.20349
3193.73895,0.20259
3191.81037,0.20172
3189.88178,0.20065
3187.95319,0.19962
3186.02461,0.19874
3184.09602,0.19790
3182.16743,0.19701
3180.23885,0.19594
3178.31026,0.19482
3176.38168,0.19373
3174.45309,0.19273
3172.52450,0.19175
3170.59592,0.19067
3168.66733,0.18975
3166.73874,0.18887
3164.81016,0.18780
3162.88157,0.18672
3160.95298,0.18572
3159.02440,0.18485
3157.09581,0.18407
3155.16723,0.18321
3153.23864,0.18226
3151.31005,0.18135
3149.38147,0.18043
3147.45288,0.17964
3145.52429,0.17892
3143.59571,0.17801
3141.66712,0.17721
3139.73854,0.17656
3137.80995,0.17582
3135.88136,0.17521
3133.95278,0.17448
3132.02419,0.17365
3130.09560,0.17304
3128.16702,0.17244
3126.23843,0.17179
3124.30984,0.17116
3122.38126,0.17054
3120.45267,0.16996
3118.52409,0.16945
3116.59550,0.16897
3114.66691,0.16854
3112.73833,0.16819
3110.80974,0.16766
3108.88115,0.16700
3106.95257,0.16654
3105.02398,0.16618
3103.09540,0.16568
3101.16681,0.16517
3099.23822,0.16478
3097.30964,0.16432
3095.38105,0.16383
3093.45246,0.16344
3091.52388,0.16308
3089.59529,0.16267
3087.66670,0.16220
3085.73812,0.16175
3083.80953,0.16130
3081.88095,0.16089
3079.95236,0.16051
3078.02377,0.15983
3076.09519,0.15917
3074.16660,0.15870
3072.23801,0.15813
3070.30943,0.15757
3068.38084,0.15698
3066.45225,0.15627
3064.52367,0.15557
3062.59508,0.15483
3060.66650,0.15412
3058.73791,0.15350
3056.80932,0.15272
3054.88074,0.15179
3052.95215,0.15099
3051.02356,0.15030
3049.09498,0.14968
3047.16639,0.14905
3045.23781,0.14840
3043.30922,0.14769
3041.38063,0.14700
3039.45205,0.14632
3037.52346,0.14561
3035.59487,0.14511
3033.66629,0.14472
3031.73770,0.14421
3029.80911,0.14365
3027.88053,0.14308
3025.95194,0.14261
3024.02336,0.14228
3022.09477,0.14199
3020.16618,0.14162
3018.23760,0.14136
3016.30901,0.14136
3014.38042,0.14131
3012.45184,0.14124
3010.52325,0.14141
3008.59467,0.14165
3006.66608,0.14190
3004.73749,0.14228
3002.80891,0.14276
3000.88032,0.14333
2998.95173,0.14395
2997.02315,0.14463
2995.09456,0.14548
2993.16597,0.14641
2991.23739,0.14748
2989.30880,0.14899
2987.38022,0.15071
2985.45163,0.15234
2983.52304,0.15407
2981.59446,0.15609
2979.66587,0.15839
2977.73728,0.16082
2975.80870,0.16329
2973.88011,0.16584
2971.95153,0.16861
2970.02294,0.17162
2968.09435,0.17482
2966.16577,0.17816
2964.23718,0.18146
2962.30859,0.18458
2960.38001,0.18747
2958.45142,0.19007
2956.52283,0.19235
2954.59425,0.19435
2952.66566,0.19634
2950.73708,0.19842
2948.80849,0.20087
2946.87990,0.20430
2944.95132,0.20854
2943.02273,0.21347
2941.09414,0.21918
2939.16556,0.22544
2937.23697,0.23201
2935.30838,0.23859
2933.37980,0.24504
2931.45121,0.25112
2929.52263,0.25672
2927.59404,0.26168
2925.66545,0.26550
2923.73687,0.26777
2921.80828,0.26804
2919.87969,0.26574
2917.95111,0.26021
2916.02252,0.25101
2914.09394,0.23934
2912.16535,0.22791
2910.23676,0.21851
2908.30818,0.21110
2906.37959,0.20522
2904.45100,0.20036
2902.52242,0.19605
2900.59383,0.19221
2898.66524,0.18869
2896.73666,0.18531
2894.80807,0.18200
2892.87949,0.17865
2890.95090,0.17546
2889.02231,0.17263
2887.09373,0.16996
2885.16514,0.16756
2883.23655,0.16571
2881.30797,0.16426
2879.37938,0.16329
2877.45080,0.16284
2875.52221,0.16280
2873.59362,0.16307
2871.66504,0.16331
2869.73645,0.16373
2867.80786,0.16475
2865.87928,0.16648
2863.95069,0.16923
2862.02210,0.17351
2860.09352,0.17959
2858.16493,0.18693
2856.23635,0.19431
2854.30776,0.20025
2852.37917,0.20291
2850.45059,0.20020
2848.52200,0.19076
2846.59341,0.17682
2844.66483,0.16266
2842.73624,0.15051
2840.80766,0.14076
2838.87907,0.13307
2836.95048,0.12690
2835.02190,0.12199
2833.09331,0.11792
2831.16472,0.11446
2829.23614,0.11154
2827.30755,0.10902
2825.37896,0.10680
2823.45038,0.10472
2821.52179,0.10282
2819.59321,0.10106
2817.66462,0.09940
2815.73603,0.09805
2813.80745,0.09688
2811.87886,0.09554
2809.95027,0.09419
2808.02169,0.09310
2806.09310,0.09211
2804.16451,0.09108
2802.23593,0.09008
2800.30734,0.08916
2798.37876,0.08828
2796.45017,0.08738
2794.52158,0.08643
2792.59300,0.08547
2790.66441,0.08470
2788.73582,0.08407
2786.80724,0.08334
2784.87865,0.08257
2782.95007,0.08182
2781.02148,0.08104
2779.09289,0.08036
2777.16431,0.07975
2775.23572,0.07914
2773.30713,0.07860
2771.37855,0.07809
2769.44996,0.07757
2767.52137,0.07700
2765.59279,0.07641
2763.66420,0.07591
2761.73562,0.07548
2759.80703,0.07504
2757.87844,0.07460
2755.94986,0.07414
2754.02127,0.07372
2752.09268,0.07338
2750.16410,0.07299
2748.23551,0.07253
2746.30693,0.07210
2744.37834,0.07175
2742.44975,0.07143
2740.52117,0.07112
2738.59258,0.07073
2736.66399,0.07033
2734.73541,0.07001
2732.80682,0.06965
2730.87823,0.06922
2728.94965,0.06874
2727.02106,0.06823
2725.09248,0.06776
2723.16389,0.06732
2721.23530,0.06689
2719.30672,0.06639
2717.37813,0.06596
2715.44954,0.06564
2713.52096,0.06513
2711.59237,0.06458
2709.66379,0.06412
2707.73520,0.06370
2705.80661,0.06338
2703.87803,0.06301
2701.94944,0.06255
2700.02085,0.06218
2698.09227,0.06188
2696.16368,0.06146
2694.23509,0.06101
2692.30651,0.06079
2690.37792,0.06056
2688.44934,0.06020
2686.52075,0.05988
2684.59216,0.05956
2682.66358,0.05919
2680.73499,0.05889
2678.80640,0.05864
2676.87782,0.05835
2674.94923,0.05806
2673.02064,0.05774
2671.09206,0.05730
2669.16347,0.05686
2667.23489,0.05649
2665.30630,0.05617
2663.37771,0.05586
2661.44913,0.05552
2659.52054,0.05516
2657.59195,0.05482
2655.66337,0.05445
2653.73478,0.05411
2651.80620,0.05381
2649.87761,0.05353
2647.94902,0.05319
2646.02044,0.05281
2644.09185,0.05248
2642.16326,0.05218
2640.23468,0.05193
2638.30609,0.05160
2636.37750,0.05120
2634.44892,0.05096
2632.52033,0.05073
2630.59175,0.05031
2628.66316,0.04987
2626.73457,0.04951
2624.80599,0.04926
2622.87740,0.04897
2620.94881,0.04862
2619.02023,0.04830
2617.09164,0.04794
2615.16306,0.04760
2613.23447,0.04723
2611.30588,0.04684
2609.37730,0.04649
2607.44871,0.04609
2605.52012,0.04575
2603.59154,0.04543
2601.66295,0.04505
2599.73436,0.04474
2597.80578,0.04442
2595.87719,0.04403
2593.94861,0.04363
2592.02002,0.04334
2590.09143,0.04306
2588.16285,0.04279
2586.23426,0.04252
2584.30567,0.04209
2582.37709,0.04167
2580.44850,0.04136
2578.51991,0.04110
2576.59133,0.04083
2574.66274,0.04049
2572.73416,0.04006
2570.80557,0.03959
2568.87698,0.03930
2566.94840,0.03914
2565.01981,0.03893
2563.09122,0.03863
2561.16264,0.03830
2559.23405,0.03798
2557.30547,0.03767
2555.37688,0.03751
2553.44829,0.03731
2551.51971,0.03697
2549.59112,0.03663
2547.66253,0.03636
2545.73395,0.03617
2543.80536,0.03591
2541.87677,0.03562
2539.94819,0.03540
2538.01960,0.03514
2536.09102,0.03486
2534.16243,0.03465
2532.23384,0.03447
2530.30526,0.03420
2528.37667,0.03388
2526.44808,0.03361
2524.51950,0.03336
2522.59091,0.03311
2520.66233,0.03282
2518.73374,0.03251
2516.80515,0.03218
2514.87657,0.03191
2512.94798,0.03160
2511.01939,0.03128
2509.09081,0.03101
2507.16222,0.03067
2505.23363,0.03041
2503.30505,0.03023
2501.37646,0.02993
2499.44788,0.02965
2497.51929,0.02936
2495.59070,0.02901
2493.66212,0.02873
2491.73353,0.02850
2489.80494,0.02828
2487.87636,0.02793
2485.94777,0.02747
2484.01919,0.02719
2482.09060,0.02700
2480.16201,0.02672
2478.23343,0.02641
2476.30484,0.02615
2474.37625,0.02593
2472.44767,0.02561
2470.51908,0.02519
2468.59049,0.02490
2466.66191,0.02470
2464.73332,0.02435
2462.80474,0.02396
2460.87615,0.02366
2458.94756,0.02335
2457.01898,0.02306
2455.09039,0.02275
2453.16180,0.02239
2451.23322,0.02212
2449.30463,0.02185
2447.37604,0.02158
2445.44746,0.02133
2443.51887,0.02105
2441.59029,0.02082
2439.66170,0.02055
2437.73311,0.02012
2435.80453,0.01972
2433.87594,0.01944
2431.94735,0.01914
2430.01877,0.01888
2428.09018,0.01859
2426.16160,0.01835
2424.23301,0.01812
2422.30442,0.01778
2420.37584,0.01752
2418.44725,0.01732
2416.51866,0.01703
2414.59008,0.01671
2412.66149,0.01640
2410.73290,0.01609
2408.80432,0.01583
2406.87573,0.01562
2404.94715,0.01537
2403.01856,0.01508
2401.08997,0.01474
2399.16139,0.01438
2397.23280,0.01410
2395.30421,0.01381
2393.37563,0.01353
2391.44704,0.01331
2389.51846,0.01316
2387.58987,0.01298
2385.66128,0.01273
2383.73270,0.01247
2381.80411,0.01215
2379.87552,0.01175
2377.94694,0.01135
2376.01835,0.01101
2374.08976,0.01074
2372.16118,0.01042
2370.23259,0.01008
2368.30401,0.00988
2366.37542,0.00970
2364.44683,0.00941
2362.51825,0.00919
2360.58966,0.00898
2358.66107,0.00875
2356.73249,0.00872
2354.80390,0.00877
2352.87532,0.00879
2350.94673,0.00873
2349.01814,0.00852
2347.08956,0.00814
2345.16097,0.00774
2343.23238,0.00755
2341.30380,0.00748
2339.37521,0.00748
2337.44662,0.00739
2335.51804,0.00713
2333.58945,0.00686
2331.66087,0.00668
2329.73228,0.00665
2327.80369,0.00657
2325.87511,0.00646
2323.94652,0.00632
2322.01793,0.00620
2320.08935,0.00618
2318.16076,0.00604
2316.23217,0.00584
2314.30359,0.00576
2312.37500,0.00564
2310.44642,0.00546
2308.51783,0.00534
2306.58924,0.00523
2304.66066,0.00508
2302.73207,0.00491
2300.80348,0.00481
2298.87490,0.00478
2296.94631,0.00460
2295.01773,0.00444
2293.08914,0.00441
2291.16055,0.00428
2289.23197,0.00417
2287.30338,0.00411
2285.37479,0.00403
2283.44621,0.00393
2281.51762,0.00387
2279.58903,0.00381
2277.66045,0.00360
2275.73186,0.00340
2273.80328,0.00333
2271.87469,0.00326
2269.94610,0.00325
2268.01752,0.00326
2266.08893,0.00318
2264.16034,0.00302
2262.23176,0.00287
2260.30317,0.00280
2258.37459,0.00277
2256.44600,0.00267
2254.51741,0.00252
2252.58883,0.00244
2250.66024,0.00248
2248.73165,0.00247
2246.80307,0.00235
2244.87448,0.00227
2242.94589,0.00222
2241.01731,0.00213
2239.08872,0.00203
2237.16014,0.00197
2235.23155,0.00193
2233.30296,0.00186
2231.37438,0.00180
2229.44579,0.00171
2227.51720,0.00159
2225.58862,0.00147
2223.66003,0.00134
2221.73145,0.00134
2219.80286,0.00134
2217.87427,0.00125
2215.94569,0.00115
2214.01710,0.00107
2212.08851,0.00097
2210.15993,0.00089
2208.23134,0.00081
2206.30275,0.00073
2204.37417,0.00071
2202.44558,0.00063
2200.51700,0.00055
2198.58841,0.00051
2196.65982,0.00044
2194.73124,0.00037
2192.80265,0.00032
2190.87406,0.00032
2188.94548,0.00033
2187.01689,0.00034
2185.08830,0.00029
2183.15972,0.00024
2181.23113,0.00029
2179.30255,0.00031
2177.37396,0.00028
2175.44537,0.00025
2173.51679,0.00024
2171.58820,0.00011
2169.65961,0.00000
2167.73103,0.00017
2165.80244,0.00032
2163.87386,0.00027
2161.94527,0.00021
2160.01668,0.00018
2158.08810,0.00016
2156.15951,0.00020
2154.23092,0.00025
2152.30234,0.00023
2150.37375,0.00019
2148.44516,0.00018
2146.51658,0.00019
2144.58799,0.00018
2142.65941,0.00017
2140.73082,0.00020
2138.80223,0.00019
2136.87365,0.00019
2134.94506,0.00020
2133.01647,0.00019
2131.08789,0.00012
2129.15930,0.00011
2127.23072,0.00018
2125.30213,0.00013
2123.37354,0.00005
2121.44496,0.00003
2119.51637,0.00000
2117.58778,-0.00004
2115.65920,-0.00006
2113.73061,-0.00007
2111.80202,-0.00010
2109.87344,-0.00007
2107.94485,-0.00002
2106.01627,-0.00003
2104.08768,-0.00010
2102.15909,-0.00015
2100.23051,-0.00016
2098.30192,-0.00021
2096.37333,-0.00021
2094.44475,-0.00014
2092.51616,-0.00007
2090.58758,-0.00000
2088.65899,0.00002
2086.73040,0.00004
2084.80182,0.00005
2082.87323,0.00003
2080.94464,0.00000
2079.01606,0.00002
2077.08747,0.00003
2075.15888,0.00001
2073.23030,0.00004
2071.30171,0.00003
2069.37313,0.00005
2067.44454,0.00014
2065.51595,0.00015
2063.58737,0.00020
2061.65878,0.00028
2059.73019,0.00022
2057.80161,0.00022
2055.87302,0.00037
2053.94443,0.00049
2052.01585,0.00057
2050.08726,0.00063
2048.15868,0.00067
2046.23009,0.00077
2044.30150,0.00098
2042.37292,0.00129
2040.44433,0.00160
2038.51574,0.00184
2036.58716,0.00198
2034.65857,0.00216
2032.72999,0.00243
2030.80140,0.00265
2028.87281,0.00285
2026.94423,0.00298
2025.01564,0.00302
2023.08705,0.00307
2021.15847,0.00306
2019.22988,0.00310
2017.30129,0.00320
2015.37271,0.00331
2013.44412,0.00350
2011.51554,0.00374
2009.58695,0.00403
2007.65836,0.00427
2005.72978,0.00441
2003.80119,0.00450
2001.87260,0.00454
1999.94402,0.00459
1998.01543,0.00462
1996.08685,0.00462
1994.15826,0.00456
1992.22967,0.00446
1990.30109,0.00434
1988.37250,0.00417
1986.44391,0.00411
1984.51533,0.00403
1982.58674,0.00386
1980.65815,0.00376
1978.72957,0.00367
1976.80098,0.00355
1974.87240,0.00349
1972.94381,0.00338
1971.01522,0.00308
1969.08664,0.00279
1967.15805,0.00264
1965.22946,0.00250
1963.30088,0.00222
1961.37229,0.00187
1959.44371,0.00172
1957.51512,0.00163
1955.58653,0.00146
1953.65795,0.00136
1951.72936,0.00122
1949.80077,0.00109
1947.87219,0.00106
1945.94360,0.00100
1944.01501,0.00083
1942.08643,0.00078
1940.15784,0.00074
1938.22926,0.00058
1936.30067,0.00046
1934.37208,0.00032
1932.44350,0.00019
1930.51491,0.00010
1928.58632,0.00000
1926.65774,-0.00001
1924.72915,0.00000
1922.80056,0.00004
1920.87198,0.00010
1918.94339,0.00016
1917.01481,0.00041
1915.08622,0.00068
1913.15763,0.00101
1911.22905,0.00143
1909.30046,0.00185
1907.37187,0.00244
1905.44329,0.00308
1903.51470,0.00364
1901.58612,0.00416
1899.65753,0.00470
1897.72894,0.00531
1895.80036,0.00587
1893.87177,0.00639
1891.94318,0.00688
1890.01460,0.00736
1888.08601,0.00770
1886.15742,0.00791
1884.22884,0.00817
1882.30025,0.00840
1880.37167,0.00861
1878.44308,0.00885
1876.51449,0.00893
1874.58591,0.00898
1872.65732,0.00898
1870.72873,0.00889
1868.80015,0.00890
1866.87156,0.00875
1864.94298,0.00827
1863.01439,0.00771
1861.08580,0.00703
1859.15722,0.00620
1857.22863,0.00535
1855.30004,0.00453
1853.37146,0.00378
1851.44287,0.00300
1849.51428,0.00226
1847.58570,0.00159
1845.65711,0.00100
1843.72853,0.00078
1841.79994,0.00057
1839.87135,0.00019
1837.94277,0.00000
1836.01418,-0.00012
1834.08559,-0.00012
1832.15701,-0.00013
1830.22842,-0.00001
1828.29984,0.00028
1826.37125,0.00041
1824.44266,0.00077
1822.51408,0.00118
1820.58549,0.00152
1818.65690,0.00209
1816.72832,0.00279
1814.79973,0.00352
1812.87114,0.00420
1810.94256,0.00514
1809.01397,0.00627
1807.08539,0.00732
1805.15680,0.00851
1803.22821,0.00981
1801.29963,0.01132
1799.37104,0.01299
1797.44245,0.01470
1795.51387,0.01631
1793.58528,0.01805
1791.65669,0.02029
1789.72811,0.02249
1787.79952,0.02445
1785.87094,0.02661
1783.94235,0.02890
1782.01376,0.03106
1780.08518,0.03331
1778.15659,0.03562
1776.22800,0.03768
1774.29942,0.03966
1772.37083,0.04192
1770.44225,0.04412
1768.51366,0.04598
1766.58507,0.04807
1764.65649,0.05015
1762.72790,0.05233
1760.79931,0.05508
1758.87073,0.05767
1756.94214,0.06056
1755.01355,0.06372
1753.08497,0.06688
1751.15638,0.07084
1749.22780,0.07527
1747.29921,0.07979
1745.37062,0.08439
1743.44204,0.08921
1741.51345,0.09406
1739.58486,0.09914
1737.65628,0.10392
1735.72769,0.10766
1733.79911,0.11198
1731.87052,0.11601
1729.94193,0.11880
1728.01335,0.12175
1726.08476,0.12473
1724.15617,0.12776
1722.22759,0.13099
1720.29900,0.13404
1718.37041,0.13734
1716.44183,0.14106
1714.51324,0.14419
1712.58466,0.14664
1710.65607,0.14900
1708.72748,0.15125
1706.79890,0.15358
1704.87031,0.15613
1702.94172,0.15834
1701.01314,0.16110
1699.08455,0.16482
1697.15596,0.16780
1695.22738,0.17122
1693.29879,0.17482
1691.37021,0.17764
1689.44162,0.18117
1687.51303,0.18431
1685.58445,0.18750
1683.65586,0.19190
1681.72727,0.19564
1679.79869,0.19888
1677.87010,0.20217
1675.94152,0.20579
1674.01293,0.20933
1672.08434,0.21221
1670.15576,0.21503
1668.22717,0.21793
1666.29858,0.22009
1664.37000,0.22183
1662.44141,0.22388
1660.51282,0.22520
1658.58424,0.22594
1656.65565,0.22614
1654.72707,0.22579
1652.79848,0.22610
1650.86989,0.22612
1648.94131,0.22501
1647.01272,0.22401
1645.08413,0.22354
1643.15555,0.22273
1641.22696,0.22201
1639.29838,0.22141
1637.36979,0.22081
1635.44120,0.22066
1633.51262,0.22019
1631.58403,0.21924
1629.65544,0.21790
1627.72686,0.21623
1625.79827,0.21423
1623.86968,0.21187
1621.94110,0.20933
1620.01251,0.20643
1618.08393,0.20369
1616.15534,0.20138
1614.22675,0.19903
1612.29817,0.19640
1610.36958,0.19388
1608.44099,0.19158
1606.51241,0.18956
1604.58382,0.18757
1602.65524,0.18530
1600.72665,0.18318
1598.79806,0.18106
1596.86948,0.17890
1594.94089,0.17680
1593.01230,0.17466
1591.08372,0.17247
1589.15513,0.17018
1587.22654,0.16806
1585.29796,0.16589
1583.36937,0.16367
1581.44079,0.16156
1579.51220,0.15937
1577.58361,0.15733
1575.65503,0.15598
1573.72644,0.15487
1571.79785,0.15346
1569.86927,0.15277
1567.94068,0.15258
1566.01209,0.15231
1564.08351,0.15237
1562.15492,0.15222
1560.22634,0.15224
1558.29775,0.15345
1556.36916,0.15422
1554.44058,0.15439
1552.51199,0.15479
1550.58340,0.15505
1548.65482,0.15526
1546.72623,0.15513
1544.79765,0.15480
1542.86906,0.15435
1540.94047,0.15366
1539.01189,0.15355
1537.08330,0.15289
1535.15471,0.15148
1533.22613,0.15046
1531.29754,0.14948
1529.36895,0.14811
1527.44037,0.14658
1525.51178,0.14528
1523.58320,0.14404
1521.65461,0.14331
1519.72602,0.14328
1517.79744,0.14281
1515.86885,0.14187
1513.94026,0.13971
1512.01168,0.13645
1510.08309,0.13295
1508.15451,0.12915
1506.22592,0.12559
1504.29733,0.12182
1502.36875,0.11747
1500.44016,0.11321
1498.51157,0.10895
1496.58299,0.10504
1494.65440,0.10156
1492.72581,0.09813
1490.79723,0.09523
1488.86864,0.09293
1486.94006,0.09114
1485.01147,0.08991
1483.08288,0.08940
1481.15430,0.08982
1479.22571,0.09108
1477.29712,0.09327
1475.36854,0.09673
1473.43995,0.10203
1471.51137,0.10927
1469.58278,0.11659
1467.65419,0.12219
1465.72561,0.12557
1463.79702,0.12720
1461.86843,0.12779
1459.93985,0.12806
1458.01126,0.12907
1456.08267,0.13057
1454.15409,0.13080
1452.22550,0.13004
1450.29692,0.12945
1448.36833,0.12905
1446.43974,0.12874
1444.51116,0.12820
1442.58257,0.12768
1440.65398,0.12758
1438.72540,0.12731
1436.79681,0.12728
1434.86822,0.12734
1432.93964,0.12695
1431.01105,0.12671
1429.08247,0.12662
1427.15388,0.12648
1425.22529,0.12649
1423.29671,0.12684
1421.36812,0.12721
1419.43953,0.12771
1417.51095,0.12825
1415.58236,0.12824
1413.65378,0.12800
1411.72519,0.12769
1409.79660,0.12738
1407.86802,0.12705
1405.93943,0.12658
1404.01084,0.12596
1402.08226,0.12505
1400.15367,0.12395
1398.22508,0.12271
1396.29650,0.12140
1394.36791,0.12033
1392.43933,0.11959
1390.51074,0.11906
1388.58215,0.11876
1386.65357,0.11843
1384.72498,0.11803
1382.79639,0.11843
1380.86781,0.11944
1378.93922,0.11999
1377.01064,0.11971
1375.08205,0.11872
1373.15346,0.11739
1371.22488,0.11588
1369.29629,0.11429
1367.36770,0.11266
1365.43912,0.11094
1363.51053,0.10922
1361.58194,0.10770
1359.65336,0.10632
1357.72477,0.10501
1355.79619,0.10387
1353.86760,0.10289
1351.93901,0.10196
1350.01043,0.10113
1348.08184,0.10033
1346.15325,0.09952
1344.22467,0.09891
1342.29608,0.09847
1340.36750,0.09784
1338.43891,0.09707
1336.51032,0.09651
1334.58174,0.09607
1332.65315,0.09566
1330.72456,0.09529
1328.79598,0.09505
1326.86739,0.09489
1324.93880,0.09451
1323.01022,0.09407
1321.08163,0.09379
1319.15305,0.09365
1317.22446,0.09345
1315.29587,0.09322
1313.36729,0.09306
1311.43870,0.09268
1309.51011,0.09218
1307.58153,0.09195
1305.65294,0.09177
1303.72435,0.09157
1301.79577,0.09153
1299.86718,0.09172
1297.93860,0.09193
1296.01001,0.09211
1294.08142,0.09260
1292.15284,0.09343
1290.22425,0.09452
1288.29566,0.09580
1286.36708,0.09717
1284.43849,0.09871
1282.50991,0.10037
1280.58132,0.10203
1278.65273,0.10388
1276.72415,0.10597
1274.79556,0.10801
1272.86697,0.11000
1270.93839,0.11213
1269.00980,0.11431
1267.08121,0.11670
1265.15263,0.11942
1263.22404,0.12224
1261.29546,0.12538
1259.36687,0.12923
1257.43828,0.13367
1255.50970,0.13847
1253.58111,0.14380
1251.65252,0.14954
1249.72394,0.15512
1247.79535,0.16068
1245.86677,0.16629
1243.93818,0.17149
1242.00959,0.17621
1240.08101,0.18077
1238.15242,0.18501
1236.22383,0.18876
1234.29525,0.19229
1232.36666,0.19557
1230.43807,0.19856
1228.50949,0.20131
1226.58090,0.20386
1224.65232,0.20642
1222.72373,0.20894
1220.79514,0.21147
1218.86656,0.21412
1216.93797,0.21663
1215.00938,0.21901
1213.08080,0.22134
1211.15221,0.22380
1209.22363,0.22647
1207.29504,0.22914
1205.36645,0.23171
1203.43787,0.23389
1201.50928,0.23579
1199.58069,0.23780
1197.65211,0.23991
1195.72352,0.24166
1193.79493,0.24319
1191.86635,0.24511
1189.93776,0.24704
1188.00918,0.24888
1186.08059,0.25092
1184.15200,0.25306
1182.22342,0.25546
1180.29483,0.25788
1178.36624,0.26041
1176.43766,0.26332
1174.50907,0.26636
1172.58048,0.26952
1170.65190,0.27284
1168.72331,0.27612
1166.79473,0.27938
1164.86614,0.28259
1162.93755,0.28551
1161.00897,0.28776
1159.08038,0.28882
1157.15179,0.28946
1155.22321,0.29080
1153.29462,0.29240
1151.36604,0.29405
1149.43745,0.29593
1147.50886,0.29832
1145.58028,0.30119
1143.65169,0.30438
1141.72310,0.30809
1139.79452,0.31183
1137.86593,0.31599
1135.93734,0.32066
1134.00876,0.32525
1132.08017,0.32983
1130.15159,0.33439
1128.22300,0.33976
1126.29441,0.34590
1124.36583,0.35183
1122.43724,0.35789
1120.50865,0.36465
1118.58007,0.37170
1116.65148,0.37843
1114.72290,0.38518
1112.79431,0.39256
1110.86572,0.40003
1108.93714,0.40677
1107.00855,0.41287
1105.07996,0.41828
1103.15138,0.42249
1101.22279,0.42538
1099.29420,0.42729
1097.36562,0.42913
1095.43703,0.43038
1093.50845,0.43068
1091.57986,0.43095
1089.65127,0.43080
1087.72269,0.43006
1085.79410,0.42906
1083.86551,0.42787
1081.93693,0.42660
1080.00834,0.42479
1078.07976,0.42299
1076.15117,0.42166
1074.22258,0.42054
1072.29400,0.41999
1070.36541,0.41950
1068.43682,0.41882
1066.50824,0.41880
1064.57965,0.41867
1062.65106,0.41716
1060.72248,0.41589
1058.79389,0.41531
1056.86531,0.41308
1054.93672,0.41035
1053.00813,0.40899
1051.07955,0.40790
1049.15096,0.40697
1047.22237,0.40750
1045.29379,0.40968
1043.36520,0.41263
1041.43661,0.41566
1039.50803,0.41800
1037.57944,0.41987
1035.65086,0.42181
1033.72227,0.42269
1031.79368,0.42260
1029.86510,0.42170
1027.93651,0.41918
1026.00792,0.41563
1024.07934,0.41187
1022.15075,0.40851
1020.22217,0.40532
1018.29358,0.40192
1016.36499,0.39826
1014.43641,0.39411
1012.50782,0.39003
1010.57923,0.38611
1008.65065,0.38210
1006.72206,0.37793
1004.79347,0.37304
1002.86489,0.36750
1000.93630,0.36193
999.00772,0.35626
997.07913,0.35005
995.15054,0.34324
993.22196,0.33614
991.29337,0.32893
989.36478,0.32149
987.43620,0.31375
985.50761,0.30531
983.57903,0.29580
981.65044,0.28581
979.72185,0.27542
977.79327,0.26426
975.86468,0.25266
973.93609,0.24113
972.00751,0.22985
970.07892,0.21866
968.15033,0.20783
966.22175,0.19785
964.29316,0.18877
962.36458,0.18039
960.43599,0.17243
958.50740,0.16527
956.57882,0.15921
954.65023,0.15407
952.72164,0.14958
950.79306,0.14551
948.86447,0.14222
946.93589,0.13950
945.00730,0.13688
943.07871,0.13496
941.15013,0.13373
939.22154,0.13214
937.29295,0.13038
935.36437,0.12875
933.43578,0.12695
931.50719,0.12540
929.57861,0.12412
927.65002,0.12279
925.72144,0.12133
923.79285,0.12025
921.86426,0.11997
919.93568,0.11977
918.00709,0.11938
916.07850,0.11880
914.14992,0.11801
912.22133,0.11630
910.29274,0.11286
908.36416,0.10798
906.43557,0.10173
904.50699,0.09475
902.57840,0.08771
900.64981,0.08085
898.72123,0.07467
896.79264,0.06873
894.86405,0.06296
892.93547,0.05784
891.00688,0.05355
889.07830,0.04939
887.14971,0.04516
885.22112,0.04158
883.29254,0.03794
881.36395,0.03435
879.43536,0.03117
877.50678,0.02792
875.57819,0.02475
873.64960,0.02138
871.72102,0.01776
869.79243,0.01427
867.86385,0.01143
865.93526,0.00925
864.00667,0.00719
862.07809,0.00513
860.14950,0.00294
858.22091,0.00122
856.29233,0.00048
854.36374,0.00000
852.43516,-0.00030
850.50657,0.00012
848.57798,0.00089
846.64940,0.00220
844.72081,0.00416
842.79222,0.00631
840.86364,0.00956
838.93505,0.01405
837.00646,0.01870
835.07788,0.02288
833.14929,0.02624
831.22071,0.02879
829.29212,0.03049
827.36353,0.03155
825.43495,0.03189
823.50636,0.03202
821.57777,0.03268
819.64919,0.03361
817.72060,0.03504
815.79201,0.03696
813.86343,0.03981
811.93484,0.04361
810.00626,0.04870
808.07767,0.05611
806.14908,0.06463
804.22050,0.07354
802.29191,0.08087
800.36332,0.08398
798.43474,0.08286
796.50615,0.07803
794.57757,0.07122
792.64898,0.06453
790.72039,0.05983
788.79181,0.05666
786.86322,0.05451
784.93463,0.05515
783.00605,0.05701
781.07746,0.05799
779.14887,0.05644
777.22029,0.05128
775.29170,0.04482
773.36312,0.03840
771.43453,0.03265
769.50594,0.02875
767.57736,0.02657
765.64877,0.02538
763.72018,0.02490
761.79160,0.02526
759.86301,0.02566
757.93443,0.02572
756.00584,0.02643
754.07725,0.02674
752.14867,0.02569
750.22008,0.02436
748.29149,0.02289
746.36291,0.02136
744.43432,0.01943
742.50573,0.01671
740.57715,0.01384
738.64856,0.01060
736.71998,0.00818
734.79139,0.00671
732.86280,0.00511
730.93422,0.00460
729.00563,0.00520
727.07704,0.00605
725.14846,0.00644
723.21987,0.00629
721.29129,0.00575
719.36270,0.00437
717.43411,0.00269
715.50553,0.00114
713.57694,0.00034
711.64835,0.00034
709.71977,0.00089
707.79118,0.00269
705.86259,0.00500
703.93401,0.00755
702.00542,0.01081
700.07684,0.01504
698.14825,0.02064
696.21966,0.02489
694.29108,0.02469
692.36249,0.02111
690.43390,0.01629
688.50532,0.01226
686.57673,0.00977
684.64814,0.00761
682.71956,0.00616
680.79097,0.00579
678.86239,0.00540
676.93380,0.00511
675.00521,0.00447
673.07663,0.00316
671.14804,0.00229
669.21945,0.00108
667.29087,0.00000
665.36228,0.00029
663.43370,-0.00033
661.50511,-0.00135
659.57652,-0.00100
657.64794,-0.00131
655.71935,-0.00153
653.79076,0.00003
651.86218,0.00179
649.93359,0.00227
648.00500,0.00199
646.07642,0.00177
644.14783,0.00188
642.21925,0.00250
640.29066,0.00253
638.36207,0.00223
636.43349,0.00201
634.50490,0.00218
632.57631,0.00407
630.64773,0.00504
628.71914,0.00462
626.79056,0.00489
624.86197,0.00542
622.93338,0.00719
621.00480,0.00878
619.07621,0.00860
617.14762,0.00885
615.21904,0.01008
613.29045,0.01120
611.36186,0.01234
609.43328,0.01345
607.50469,0.01355
605.57611,0.01518
603.64752,0.01817
601.71893,0.01948
599.79035,0.02163
597.86176,0.02353
595.93317,0.02444
594.00459,0.02760
592.07600,0.03160
590.14742,0.03598
588.21883,0.04016
586.29024,0.04332
584.36166,0.04654
582.43307,0.05041
580.50448,0.05547
578.57590,0.06078
576.64731,0.06678
574.71872,0.07230
572.79014,0.07636
570.86155,0.08261
568.93297,0.08956
567.00438,0.09382
565.07579,0.09836
563.14721,0.10493
561.21862,0.11214
559.29003,0.11887
557.36145,0.12331
555.43286,0.12858
553.50427,0.13457
551.57569,0.13791
549.64710,0.14271
547.71852,0.14771
545.78993,0.15232
543.86134,0.15846
541.93276,0.16313
540.00417,0.16820
538.07558,0.17480
536.14700,0.18166
534.21841,0.18729
532.28983,0.18921
530.36124,0.18864
528.43265,0.18991
526.50407,0.19035
524.57548,0.18664
522.64689,0.18330
520.71831,0.17842
518.78972,0.17253
516.86113,0.16852
514.93255,0.16350
513.00396,0.15619
511.07538,0.14720
509.14679,0.14163
507.21820,0.13886
505.28962,0.13750
503.36103,0.14007
501.43244,0.14418
499.50386,0.14860
497.57527,0.15353
495.64669,0.15975
493.71810,0.16679
491.78951,0.17760
489.86093,0.19268
487.93234,0.20566
486.00375,0.21885
484.07517,0.23307
482.14658,0.24454
480.21799,0.25493
478.28941,0.26623
476.36082,0.27654
474.43224,0.28621
472.50365,0.28935
470.57506,0.28234
468.64648,0.27467
466.71789,0.26047
464.78930,0.23995
462.86072,0.22578
460.93213,0.21780
459.00355,0.20971
457.07496,0.19909
455.14637,0.18175
453.21779,0.16436
451.28920,0.15582
449.36061,0.14663
447.43203,0.13803
445.50344,0.12914
443.57485,0.11950
441.64627,0.11430
439.71768,0.10720
437.78910,0.10144
435.86051,0.09695
433.93192,0.09701
432.00334,0.09599
430.07475,0.08997
428.14616,0.08500
426.21758,0.07393
424.28899,0.06902
422.36040,0.06852
420.43182,0.06216
418.50323,0.05463
416.57465,0.05193
414.64606,0.05115
412.71747,0.04329
410.78889,0.03289
408.86030,0.02168
406.93171,0.01660
405.00313,0.01338
403.07454,0.01470
401.14596,0.01208
399.21737,0.00000
