3747.24323,0.00070
3745.31464,0.00391
3743.38605,0.00000
3741.45747,0.00025
3739.52888,0.00440
3737.60030,0.00584
3735.67171,0.00489
3733.74312,0.00389
3731.81454,0.00468
3729.88595,0.00567
3727.95736,0.00786
3726.02878,0.00916
3724.10019,0.00942
3722.17161,0.01130
3720.24302,0.01235
3718.31443,0.01474
3716.38585,0.01765
3714.45726,0.02146
3712.52867,0.02476
3710.60009,0.02472
3708.67150,0.02789
3706.74291,0.03207
3704.81433,0.03685
3702.88574,0.04114
3700.95716,0.04271
3699.02857,0.04489
3697.09998,0.04624
3695.17140,0.04744
3693.24281,0.04812
3691.31422,0.04914
3689.38564,0.04919
3687.45705,0.04757
3685.52846,0.05032
3683.59988,0.05456
3681.67129,0.05830
3679.74271,0.06129
3677.81412,0.06626
3675.88553,0.06959
3673.95695,0.06995
3672.02836,0.07688
3670.09977,0.08171
3668.17119,0.08422
3666.24260,0.09045
3664.31402,0.09571
3662.38543,0.10032
3660.45684,0.10448
3658.52826,0.10941
3656.59967,0.11288
3654.67108,0.11474
3652.74250,0.12017
3650.81391,0.12421
3648.88532,0.12436
3646.95674,0.12541
3645.02815,0.12939
3643.09957,0.13411
3641.17098,0.13735
3639.24239,0.14012
3637.31381,0.14265
3635.38522,0.14529
3633.45663,0.14785
3631.52805,0.15175
3629.59946,0.15401
3627.67088,0.15145
3625.74229,0.15355
3623.81370,0.15681
3621.88512,0.15805
3619.95653,0.15778
3618.02794,0.15412
3616.09936,0.15279
3614.17077,0.15223
3612.24218,0.15015
3610.31360,0.14889
3608.38501,0.14701
3606.45643,0.14516
3604.52784,0.14465
3602.59925,0.14435
3600.67067,0.14312
3598.74208,0.14184
3596.81349,0.14122
3594.88491,0.14049
3592.95632,0.13960
3591.02774,0.13992
3589.09915,0.14041
3587.17056,0.13853
3585.24198,0.13742
3583.31339,0.13846
3581.38480,0.13927
3579.45622,0.13967
3577.52763,0.13979
3575.59904,0.13995
3573.67046,0.14055
3571.74187,0.14165
3569.81329,0.14300
3567.88470,0.14316
3565.95611,0.14241
3564.02753,0.14306
3562.09894,0.14436
3560.17035,0.14545
3558.24177,0.14642
3556.31318,0.14729
3554.38459,0.14855
3552.45601,0.14928
3550.52742,0.14981
3548.59884,0.15101
3546.67025,0.15164
3544.74166,0.15202
3542.81308,0.15287
3540.88449,0.15421
3538.95590,0.15563
3537.02732,0.15631
3535.09873,0.15670
3533.17015,0.15763
3531.24156,0.15901
3529.31297,0.15997
3527.38439,0.16064
3525.45580,0.16141
3523.52721,0.16203
3521.59863,0.16281
3519.67004,0.16387
3517.74145,0.16507
3515.81287,0.16605
3513.88428,0.16679
3511.95570,0.16759
3510.02711,0.16848
3508.09852,0.16920
3506.16994,0.17011
3504.24135,0.17123
3502.31276,0.17158
3500.38418,0.17219
3498.45559,0.17327
3496.52701,0.17401
3494.59842,0.17496
3492.66983,0.17586
3490.74125,0.17660
3488.81266,0.17721
3486.88407,0.17790
3484.95549,0.17899
3483.02690,0.17978
3481.09831,0.18012
3479.16973,0.18070
3477.24114,0.18161
3475.31256,0.18225
3473.38397,0.18282
3471.45538,0.18340
3469.52680,0.18384
3467.59821,0.18436
3465.66962,0.18502
3463.74104,0.18582
3461.81245,0.18639
3459.88386,0.18705
3457.95528,0.18773
3456.02669,0.18830
3454.09811,0.18908
3452.16952,0.18962
3450.24093,0.19021
3448.31235,0.19059
3446.38376,0.19069
3444.45517,0.19132
3442.52659,0.19197
3440.59800,0.19248
3438.66942,0.19312
3436.74083,0.19368
3434.81224,0.19401
3432.88366,0.19441
3430.95507,0.19494
3429.02648,0.19545
3427.09790,0.19607
3425.16931,0.19647
3423.24072,0.19677
3421.31214,0.19704
3419.38355,0.19716
3417.45497,0.19769
3415.52638,0.19841
3413.59779,0.19880
3411.66921,0.19893
3409.74062,0.19885
3407.81203,0.19899
3405.88345,0.19942
3403.95486,0.19961
3402.02628,0.19978
3400.09769,0.20015
3398.16910,0.20049
3396.24052,0.20060
3394.31193,0.20075
3392.38334,0.20119
3390.45476,0.20138
3388.52617,0.20132
3386.59758,0.20134
3384.66900,0.20167
3382.74041,0.20190
3380.81183,0.20153
3378.88324,0.20164
3376.95465,0.20229
3375.02607,0.20257
3373.09748,0.20263
3371.16889,0.20276
3369.24031,0.20289
3367.31172,0.20287
3365.38314,0.20298
3363.45455,0.20347
3361.52596,0.20383
3359.59738,0.20374
3357.66879,0.20365
3355.74020,0.20350
3353.81162,0.20355
3351.88303,0.20410
3349.95444,0.20444
3348.02586,0.20446
3346.09727,0.20438
3344.16869,0.20425
3342.24010,0.20404
3340.31151,0.20405
3338.38293,0.20464
3336.45434,0.20502
3334.52575,0.20478
3332.59717,0.20442
3330.66858,0.20445
3328.73999,0.20463
3326.81141,0.20458
3324.88282,0.20455
3322.95424,0.20438
3321.02565,0.20437
3319.09706,0.20453
3317.16848,0.20452
3315.23989,0.20458
3313.31130,0.20453
3311.38272,0.20435
3309.45413,0.20418
3307.52555,0.20432
3305.59696,0.20458
3303.66837,0.20435
3301.73979,0.20403
3299.81120,0.20385
3297.88261,0.20357
3295.95403,0.20329
3294.02544,0.20300
3292.09685,0.20255
3290.16827,0.20216
3288.23968,0.20214
3286.31110,0.20213
3284.38251,0.20153
3282.45392,0.20080
3280.52534,0.20043
3278.59675,0.20000
3276.66816,0.19947
3274.73958,0.19880
3272.81099,0.19794
3270.88241,0.19733
3268.95382,0.19672
3267.02523,0.19611
3265.09665,0.19541
3263.16806,0.19452
3261.23947,0.19379
3259.31089,0.19290
3257.38230,0.19175
3255.45371,0.19068
3253.52513,0.18973
3251.59654,0.18882
3249.66796,0.18800
3247.73937,0.18736
3245.81078,0.18658
3243.88220,0.18566
3241.95361,0.18496
3240.02502,0.18440
3238.09644,0.18358
3236.16785,0.18248
3234.23927,0.18155
3232.31068,0.18093
3230.38209,0.18022
3228.45351,0.17923
3226.52492,0.17836
3224.59633,0.17793
3222.66775,0.17752
3220.73916,0.17698
3218.81057,0.17630
3216.88199,0.17546
3214.95340,0.17456
3213.02482,0.17381
3211.09623,0.17343
3209.16764,0.17290
3207.23906,0.17210
3205.31047,0.17142
3203.38188,0.17063
3201.45330,0.16970
3199.52471,0.16885
3197.59612,0.16809
3195.66754,0.16735
3193.73895,0.16665
3191.81037,0.16607
3189.88178,0.16543
3187.95319,0.16461
3186.02461,0.16373
3184.09602,0.16301
3182.16743,0.16232
3180.23885,0.16146
3178.31026,0.16059
3176.38168,0.15992
3174.45309,0.15932
3172.52450,0.15858
3170.59592,0.15780
3168.66733,0.15696
3166.73874,0.15601
3164.81016,0.15521
3162.88157,0.15453
3160.95298,0.15380
3159.02440,0.15320
3157.09581,0.15282
3155.16723,0.15222
3153.23864,0.15137
3151.31005,0.15046
3149.38147,0.14975
3147.45288,0.14937
3145.52429,0.14894
3143.59571,0.14838
3141.66712,0.14778
3139.73854,0.14716
3137.80995,0.14655
3135.88136,0.14597
3133.95278,0.14535
3132.02419,0.14458
3130.09560,0.14415
3128.16702,0.14389
3126.23843,0.14341
3124.30984,0.14316
3122.38126,0.14304
3120.45267,0.14283
3118.52409,0.14249
3116.59550,0.14187
3114.66691,0.14124
3112.73833,0.14086
3110.80974,0.14060
3108.88115,0.14041
3106.95257,0.14019
3105.02398,0.13986
3103.09540,0.13953
3101.16681,0.13914
3099.23822,0.13881
3097.30964,0.13864
3095.38105,0.13838
3093.45246,0.13807
3091.52388,0.13787
3089.59529,0.13772
3087.66670,0.13749
3085.73812,0.13725
3083.80953,0.13713
3081.88095,0.13673
3079.95236,0.13617
3078.02377,0.13576
3076.09519,0.13538
3074.16660,0.13508
3072.23801,0.13478
3070.30943,0.13432
3068.38084,0.13388
3066.45225,0.13354
3064.52367,0.13306
3062.59508,0.13241
3060.66650,0.13184
3058.73791,0.13138
3056.80932,0.13098
3054.88074,0.13049
3052.95215,0.12976
3051.02356,0.12910
3049.09498,0.12870
3047.16639,0.12814
3045.23781,0.12741
3043.30922,0.12686
3041.38063,0.12629
3039.45205,0.12580
3037.52346,0.12541
3035.59487,0.12490
3033.66629,0.12440
3031.73770,0.12392
3029.80911,0.12348
3027.88053,0.12315
3025.95194,0.12296
3024.02336,0.12280
3022.09477,0.12237
3020.16618,0.12204
3018.23760,0.12195
3016.30901,0.12186
3014.38042,0.12195
3012.45184,0.12205
3010.52325,0.12213
3008.59467,0.12230
3006.66608,0.12256
3004.73749,0.12310
3002.80891,0.12363
3000.88032,0.12416
2998.95173,0.12490
2997.02315,0.12558
2995.09456,0.12637
2993.16597,0.12750
2991.23739,0.12857
2989.30880,0.12970
2987.38022,0.13125
2985.45163,0.13292
2983.52304,0.13459
2981.59446,0.13626
2979.66587,0.13802
2977.73728,0.13972
2975.80870,0.14150
2973.88011,0.14364
2971.95153,0.14555
2970.02294,0.14733
2968.09435,0.14945
2966.16577,0.15162
2964.23718,0.15374
2962.30859,0.15578
2960.38001,0.15794
2958.45142,0.16025
2956.52283,0.16228
2954.59425,0.16386
2952.66566,0.16541
2950.73708,0.16719
2948.80849,0.16911
2946.87990,0.17161
2944.95132,0.17474
2943.02273,0.17829
2941.09414,0.18223
2939.16556,0.18635
2937.23697,0.19067
2935.30838,0.19510
2933.37980,0.19939
2931.45121,0.20339
2929.52263,0.20713
2927.59404,0.21050
2925.66545,0.21306
2923.73687,0.21508
2921.80828,0.21637
2919.87969,0.21618
2917.95111,0.21357
2916.02252,0.20728
2914.09394,0.19844
2912.16535,0.18992
2910.23676,0.18302
2908.30818,0.17750
2906.37959,0.17312
2904.45100,0.16961
2902.52242,0.16657
2900.59383,0.16366
2898.66524,0.16074
2896.73666,0.15816
2894.80807,0.15580
2892.87949,0.15348
2890.95090,0.15119
2889.02231,0.14887
2887.09373,0.14677
2885.16514,0.14499
2883.23655,0.14357
2881.30797,0.14223
2879.37938,0.14122
2877.45080,0.14090
2875.52221,0.14086
2873.59362,0.14103
2871.66504,0.14124
2869.73645,0.14142
2867.80786,0.14191
2865.87928,0.14289
2863.95069,0.14466
2862.02210,0.14759
2860.09352,0.15209
2858.16493,0.15780
2856.23635,0.16356
2854.30776,0.16795
2852.37917,0.16984
2850.45059,0.16811
2848.52200,0.16161
2846.59341,0.15151
2844.66483,0.14092
2842.73624,0.13170
2840.80766,0.12392
2838.87907,0.11764
2836.95048,0.11275
2835.02190,0.10865
2833.09331,0.10516
2831.16472,0.10228
2829.23614,0.09996
2827.30755,0.09785
2825.37896,0.09575
2823.45038,0.09397
2821.52179,0.09245
2819.59321,0.09092
2817.66462,0.08937
2815.73603,0.08821
2813.80745,0.08732
2811.87886,0.08627
2809.95027,0.08520
2808.02169,0.08418
2806.09310,0.08325
2804.16451,0.08241
2802.23593,0.08162
2800.30734,0.08066
2798.37876,0.07982
2796.45017,0.07925
2794.52158,0.07846
2792.59300,0.07769
2790.66441,0.07706
2788.73582,0.07647
2786.80724,0.07585
2784.87865,0.07512
2782.95007,0.07458
2781.02148,0.07405
2779.09289,0.07344
2777.16431,0.07289
2775.23572,0.07234
2773.30713,0.07182
2771.37855,0.07130
2769.44996,0.07086
2767.52137,0.07054
2765.59279,0.07014
2763.66420,0.06968
2761.73562,0.06931
2759.80703,0.06904
2757.87844,0.06865
2755.94986,0.06801
2754.02127,0.06743
2752.09268,0.06725
2750.16410,0.06716
2748.23551,0.06693
2746.30693,0.06659
2744.37834,0.06619
2742.44975,0.06580
2740.52117,0.06545
2738.59258,0.06514
2736.66399,0.06475
2734.73541,0.06436
2732.80682,0.06411
2730.87823,0.06393
2728.94965,0.06359
2727.02106,0.06313
2725.09248,0.06275
2723.16389,0.06233
2721.23530,0.06187
2719.30672,0.06147
2717.37813,0.06116
2715.44954,0.06090
2713.52096,0.06037
2711.59237,0.05980
2709.66379,0.05941
2707.73520,0.05909
2705.80661,0.05878
2703.87803,0.05837
2701.94944,0.05786
2700.02085,0.05743
2698.09227,0.05721
2696.16368,0.05696
2694.23509,0.05669
2692.30651,0.05641
2690.37792,0.05612
2688.44934,0.05587
2686.52075,0.05555
2684.59216,0.05536
2682.66358,0.05516
2680.73499,0.05485
2678.80640,0.05462
2676.87782,0.05429
2674.94923,0.05398
2673.02064,0.05367
2671.09206,0.05320
2669.16347,0.05276
2667.23489,0.05247
2665.30630,0.05224
2663.37771,0.05194
2661.44913,0.05159
2659.52054,0.05118
2657.59195,0.05088
2655.66337,0.05063
2653.73478,0.05026
2651.80620,0.04996
2649.87761,0.04970
2647.94902,0.04938
2646.02044,0.04907
2644.09185,0.04874
2642.16326,0.04847
2640.23468,0.04823
2638.30609,0.04799
2636.37750,0.04764
2634.44892,0.04725
2632.52033,0.04695
2630.59175,0.04665
2628.66316,0.04643
2626.73457,0.04621
2624.80599,0.04582
2622.87740,0.04538
2620.94881,0.04506
2619.02023,0.04477
2617.09164,0.04444
2615.16306,0.04408
2613.23447,0.04375
2611.30588,0.04351
2609.37730,0.04328
2607.44871,0.04300
2605.52012,0.04277
2603.59154,0.04247
2601.66295,0.04215
2599.73436,0.04190
2597.80578,0.04159
2595.87719,0.04132
2593.94861,0.04101
2592.02002,0.04058
2590.09143,0.04027
2588.16285,0.04008
2586.23426,0.03982
2584.30567,0.03946
2582.37709,0.03908
2580.44850,0.03881
2578.51991,0.03860
2576.59133,0.03830
2574.66274,0.03803
2572.73416,0.03778
2570.80557,0.03755
2568.87698,0.03729
2566.94840,0.03688
2565.01981,0.03663
2563.09122,0.03653
2561.16264,0.03625
2559.23405,0.03588
2557.30547,0.03560
2555.37688,0.03540
2553.44829,0.03518
2551.51971,0.03492
2549.59112,0.03467
2547.66253,0.03449
2545.73395,0.03426
2543.80536,0.03391
2541.87677,0.03367
2539.94819,0.03342
2538.01960,0.03319
2536.09102,0.03309
2534.16243,0.03282
2532.23384,0.03253
2530.30526,0.03243
2528.37667,0.03231
2526.44808,0.03202
2524.51950,0.03167
2522.59091,0.03139
2520.66233,0.03117
2518.73374,0.03093
2516.80515,0.03064
2514.87657,0.03033
2512.94798,0.02997
2511.01939,0.02968
2509.09081,0.02952
2507.16222,0.02933
2505.23363,0.02910
2503.30505,0.02886
2501.37646,0.02865
2499.44788,0.02836
2497.51929,0.02809
2495.59070,0.02784
2493.66212,0.02756
2491.73353,0.02731
2489.80494,0.02692
2487.87636,0.02656
2485.94777,0.02635
2484.01919,0.02615
2482.09060,0.02592
2480.16201,0.02558
2478.23343,0.02526
2476.30484,0.02499
2474.37625,0.02473
2472.44767,0.02440
2470.51908,0.02407
2468.59049,0.02380
2466.66191,0.02346
2464.73332,0.02317
2462.80474,0.02299
2460.87615,0.02282
2458.94756,0.02251
2457.01898,0.02213
2455.09039,0.02188
2453.16180,0.02168
2451.23322,0.02145
2449.30463,0.02110
2447.37604,0.02079
2445.44746,0.02058
2443.51887,0.02019
2441.59029,0.01985
2439.66170,0.01964
2437.73311,0.01948
2435.80453,0.01925
2433.87594,0.01888
2431.94735,0.01868
2430.01877,0.01854
2428.09018,0.01826
2426.16160,0.01794
2424.23301,0.01766
2422.30442,0.01735
2420.37584,0.01699
2418.44725,0.01671
2416.51866,0.01655
2414.59008,0.01643
2412.66149,0.01622
2410.73290,0.01603
2408.80432,0.01582
2406.87573,0.01554
2404.94715,0.01531
2403.01856,0.01508
2401.08997,0.01488
2399.16139,0.01463
2397.23280,0.01432
2395.30421,0.01408
2393.37563,0.01388
2391.44704,0.01370
2389.51846,0.01342
2387.58987,0.01307
2385.66128,0.01285
2383.73270,0.01267
2381.80411,0.01246
2379.87552,0.01225
2377.94694,0.01203
2376.01835,0.01181
2374.08976,0.01152
2372.16118,0.01109
2370.23259,0.01079
2368.30401,0.01052
2366.37542,0.01018
2364.44683,0.00999
2362.51825,0.00966
2360.58966,0.00923
2358.66107,0.00902
2356.73249,0.00887
2354.80390,0.00869
2352.87532,0.00865
2350.94673,0.00876
2349.01814,0.00898
2347.08956,0.00911
2345.16097,0.00883
2343.23238,0.00848
2341.30380,0.00827
2339.37521,0.00804
2337.44662,0.00785
2335.51804,0.00757
2333.58945,0.00741
2331.66087,0.00729
2329.73228,0.00715
2327.80369,0.00710
2325.87511,0.00685
2323.94652,0.00665
2322.01793,0.00663
2320.08935,0.00653
2318.16076,0.00644
2316.23217,0.00637
2314.30359,0.00625
2312.37500,0.00613
2310.44642,0.00608
2308.51783,0.00604
2306.58924,0.00591
2304.66066,0.00575
2302.73207,0.00563
2300.80348,0.00552
2298.87490,0.00539
2296.94631,0.00529
2295.01773,0.00513
2293.08914,0.00496
2291.16055,0.00484
2289.23197,0.00474
2287.30338,0.00455
2285.37479,0.00437
2283.44621,0.00428
2281.51762,0.00414
2279.58903,0.00399
2277.66045,0.00391
2275.73186,0.00386
2273.80328,0.00380
2271.87469,0.00372
2269.94610,0.00365
2268.01752,0.00354
2266.08893,0.00340
2264.16034,0.00324
2262.23176,0.00306
2260.30317,0.00296
2258.37459,0.00296
2256.44600,0.00290
2254.51741,0.00281
2252.58883,0.00273
2250.66024,0.00258
2248.73165,0.00243
2246.80307,0.00237
2244.87448,0.00235
2242.94589,0.00229
2241.01731,0.00218
2239.08872,0.00206
2237.16014,0.00197
2235.23155,0.00198
2233.30296,0.00189
2231.37438,0.00176
2229.44579,0.00173
2227.51720,0.00167
2225.58862,0.00162
2223.66003,0.00150
2221.73145,0.00129
2219.80286,0.00111
2217.87427,0.00106
2215.94569,0.00110
2214.01710,0.00106
2212.08851,0.00105
2210.15993,0.00094
2208.23134,0.00073
2206.30275,0.00057
2204.37417,0.00050
2202.44558,0.00054
2200.51700,0.00054
2198.58841,0.00049
2196.65982,0.00035
2194.73124,0.00032
2192.80265,0.00046
2190.87406,0.00042
2188.94548,0.00031
2187.01689,0.00031
2185.08830,0.00028
2183.15972,0.00021
2181.23113,0.00023
2179.30255,0.00024
2177.37396,0.00020
2175.44537,0.00026
2173.51679,0.00025
2171.58820,0.00010
2169.65961,0.00000
2167.73103,0.00013
2165.80244,0.00029
2163.87386,0.00028
2161.94527,0.00033
2160.01668,0.00037
2158.08810,0.00045
2156.15951,0.00051
2154.23092,0.00046
2152.30234,0.00041
2150.37375,0.00036
2148.44516,0.00040
2146.51658,0.00040
2144.58799,0.00036
2142.65941,0.00041
2140.73082,0.00042
2138.80223,0.00045
2136.87365,0.00043
2134.94506,0.00033
2133.01647,0.00027
2131.08789,0.00025
2129.15930,0.00018
2127.23072,0.00011
2125.30213,0.00015
2123.37354,0.00018
2121.44496,0.00009
2119.51637,0.00001
2117.58778,0.00008
2115.65920,0.00013
2113.73061,0.00011
2111.80202,0.00008
2109.87344,0.00002
2107.94485,0.00000
2106.01627,-0.00000
2104.08768,-0.00003
2102.15909,-0.00003
2100.23051,-0.00006
2098.30192,-0.00008
2096.37333,-0.00007
2094.44475,-0.00004
2092.51616,0.00005
2090.58758,0.00009
2088.65899,0.00001
2086.73040,-0.00001
2084.80182,0.00006
2082.87323,0.00011
2080.94464,0.00013
2079.01606,0.00011
2077.08747,0.00014
2075.15888,0.00009
2073.23030,0.00000
2071.30171,-0.00004
2069.37313,-0.00011
2067.44454,-0.00007
2065.51595,0.00005
2063.58737,0.00007
2061.65878,0.00006
2059.73019,0.00007
2057.80161,0.00009
2055.87302,0.00000
2053.94443,-0.00003
2052.01585,0.00003
2050.08726,0.00003
2048.15868,0.00012
2046.23009,0.00029
2044.30150,0.00045
2042.37292,0.00054
2040.44433,0.00082
2038.51574,0.00122
2036.58716,0.00141
2034.65857,0.00155
2032.72999,0.00182
2030.80140,0.00203
2028.87281,0.00205
2026.94423,0.00206
2025.01564,0.00214
2023.08705,0.00209
2021.15847,0.00203
2019.22988,0.00206
2017.30129,0.00212
2015.37271,0.00230
2013.44412,0.00263
2011.51554,0.00294
2009.58695,0.00325
2007.65836,0.00339
2005.72978,0.00345
2003.80119,0.00364
2001.87260,0.00365
1999.94402,0.00363
1998.01543,0.00368
1996.08685,0.00365
1994.15826,0.00368
1992.22967,0.00350
1990.30109,0.00330
1988.37250,0.00324
1986.44391,0.00311
1984.51533,0.00301
1982.58674,0.00288
1980.65815,0.00275
1978.72957,0.00268
1976.80098,0.00263
1974.87240,0.00260
1972.94381,0.00251
1971.01522,0.00237
1969.08664,0.00210
1967.15805,0.00166
1965.22946,0.00130
1963.30088,0.00127
1961.37229,0.00119
1959.44371,0.00095
1957.51512,0.00080
1955.58653,0.00068
1953.65795,0.00066
1951.72936,0.00056
1949.80077,0.00054
1947.87219,0.00059
1945.94360,0.00051
1944.01501,0.00041
1942.08643,0.00007
1940.15784,0.00000
1938.22926,0.00013
1936.30067,0.00001
1934.37208,0.00008
1932.44350,0.00012
1930.51491,0.00007
1928.58632,-0.00003
1926.65774,-0.00015
1924.72915,0.00000
1922.80056,-0.00008
1920.87198,0.00006
1918.94339,0.00026
1917.01481,0.00006
1915.08622,0.00052
1913.15763,0.00128
1911.22905,0.00179
1909.30046,0.00236
1907.37187,0.00289
1905.44329,0.00359
1903.51470,0.00433
1901.58612,0.00501
1899.65753,0.00566
1897.72894,0.00627
1895.80036,0.00687
1893.87177,0.00737
1891.94318,0.00815
1890.01460,0.00852
1888.08601,0.00852
1886.15742,0.00909
1884.22884,0.00943
1882.30025,0.00971
1880.37167,0.01004
1878.44308,0.01016
1876.51449,0.01037
1874.58591,0.01045
1872.65732,0.01065
1870.72873,0.01072
1868.80015,0.00999
1866.87156,0.00929
1864.94298,0.00940
1863.01439,0.00924
1861.08580,0.00849
1859.15722,0.00765
1857.22863,0.00662
1855.30004,0.00582
1853.37146,0.00484
1851.44287,0.00396
1849.51428,0.00322
1847.58570,0.00258
1845.65711,0.00223
1843.72853,0.00062
1841.79994,0.00000
1839.87135,0.00044
1837.94277,0.00019
1836.01418,-0.00009
1834.08559,-0.00017
1832.15701,0.00016
1830.22842,-0.00037
1828.29984,-0.00076
1826.37125,-0.00005
1824.44266,-0.00016
1822.51408,0.00025
1820.58549,0.00107
1818.65690,0.00147
1816.72832,0.00184
1814.79973,0.00241
1812.87114,0.00328
1810.94256,0.00378
1809.01397,0.00456
1807.08539,0.00581
1805.15680,0.00697
1803.22821,0.00805
1801.29963,0.00883
1799.37104,0.00987
1797.44245,0.01158
1795.51387,0.01348
1793.58528,0.01483
1791.65669,0.01543
1789.72811,0.01707
1787.79952,0.01973
1785.87094,0.02163
1783.94235,0.02326
1782.01376,0.02513
1780.08518,0.02682
1778.15659,0.02873
1776.22800,0.03069
1774.29942,0.03257
1772.37083,0.03308
1770.44225,0.03378
1768.51366,0.03604
1766.58507,0.03769
1764.65649,0.04009
1762.72790,0.04214
1760.79931,0.04322
1758.87073,0.04570
1756.94214,0.04772
1755.01355,0.05000
1753.08497,0.05328
1751.15638,0.05566
1749.22780,0.05793
1747.29921,0.06143
1745.37062,0.06543
1743.44204,0.06937
1741.51345,0.07329
1739.58486,0.07666
1737.65628,0.08038
1735.72769,0.08450
1733.79911,0.08564
1731.87052,0.08725
1729.94193,0.09113
1728.01335,0.09388
1726.08476,0.09692
1724.15617,0.09964
1722.22759,0.10229
1720.29900,0.10593
1718.37041,0.10809
1716.44183,0.10945
1714.51324,0.11209
1712.58466,0.11572
1710.65607,0.11903
1708.72748,0.12172
1706.79890,0.12422
1704.87031,0.12595
1702.94172,0.12932
1701.01314,0.13183
1699.08455,0.13240
1697.15596,0.13636
1695.22738,0.13877
1693.29879,0.14138
1691.37021,0.14567
1689.44162,0.14787
1687.51303,0.15098
1685.58445,0.15375
1683.65586,0.15338
1681.72727,0.15617
1679.79869,0.15993
1677.87010,0.16317
1675.94152,0.16529
1674.01293,0.16639
1672.08434,0.16914
1670.15576,0.17095
1668.22717,0.17153
1666.29858,0.17378
1664.37000,0.17603
1662.44141,0.17623
1660.51282,0.17672
1658.58424,0.17803
1656.65565,0.17910
1654.72707,0.18002
1652.79848,0.17593
1650.86989,0.17483
1648.94131,0.17774
1647.01272,0.17708
1645.08413,0.17563
1643.15555,0.17661
1641.22696,0.17746
1639.29838,0.17787
1637.36979,0.17821
1635.44120,0.17640
1633.51262,0.17509
1631.58403,0.17642
1629.65544,0.17636
1627.72686,0.17497
1625.79827,0.17364
1623.86968,0.17159
1621.94110,0.16872
1620.01251,0.16754
1618.08393,0.16656
1616.15534,0.16240
1614.22675,0.16057
1612.29817,0.16015
1610.36958,0.15854
1608.44099,0.15700
1606.51241,0.15565
1604.58382,0.15431
1602.65524,0.15230
1600.72665,0.15056
1598.79806,0.14902
1596.86948,0.14746
1594.94089,0.14580
1593.01230,0.14404
1591.08372,0.14264
1589.15513,0.14088
1587.22654,0.13930
1585.29796,0.13760
1583.36937,0.13604
1581.44079,0.13448
1579.51220,0.13325
1577.58361,0.13207
1575.65503,0.12871
1573.72644,0.12764
1571.79785,0.12852
1569.86927,0.12729
1567.94068,0.12599
1566.01209,0.12638
1564.08351,0.12651
1562.15492,0.12766
1560.22634,0.12797
1558.29775,0.12356
1556.36916,0.12430
1554.44058,0.12644
1552.51199,0.12701
1550.58340,0.12778
1548.65482,0.12778
1546.72623,0.12846
1544.79765,0.12832
1542.86906,0.12758
1540.94047,0.12685
1539.01189,0.12359
1537.08330,0.12449
1535.15471,0.12596
1533.22613,0.12451
1531.29754,0.12327
1529.36895,0.12325
1527.44037,0.12243
1525.51178,0.12078
1523.58320,0.12045
1521.65461,0.11893
1519.72602,0.11763
1517.79744,0.11819
1515.86885,0.11757
1513.94026,0.11687
1512.01168,0.11539
1510.08309,0.11328
1508.15451,0.11069
1506.22592,0.10414
1504.29733,0.10044
1502.36875,0.09968
1500.44016,0.09726
1498.51157,0.09374
1496.58299,0.08958
1494.65440,0.08624
1492.72581,0.08499
1490.79723,0.08280
1488.86864,0.07958
1486.94006,0.07794
1485.01147,0.07739
1483.08288,0.07739
1481.15430,0.07759
1479.22571,0.07858
1477.29712,0.08032
1475.36854,0.08235
1473.43995,0.08519
1471.51137,0.08915
1469.58278,0.09481
1467.65419,0.10008
1465.72561,0.10224
1463.79702,0.10275
1461.86843,0.10381
1459.93985,0.10534
1458.01126,0.10553
1456.08267,0.10398
1454.15409,0.10493
1452.22550,0.10602
1450.29692,0.10610
1448.36833,0.10578
1446.43974,0.10493
1444.51116,0.10489
1442.58257,0.10478
1440.65398,0.10469
1438.72540,0.10502
1436.79681,0.10360
1434.86822,0.10247
1432.93964,0.10326
1431.01105,0.10327
1429.08247,0.10258
1427.15388,0.10282
1425.22529,0.10287
1423.29671,0.10247
1421.36812,0.10291
1419.43953,0.10229
1417.51095,0.10092
1415.58236,0.10127
1413.65378,0.10128
1411.72519,0.10065
1409.79660,0.09990
1407.86802,0.09906
1405.93943,0.09811
1404.01084,0.09664
1402.08226,0.09597
1400.15367,0.09505
1398.22508,0.09349
1396.29650,0.09273
1394.36791,0.09183
1392.43933,0.09129
1390.51074,0.09143
1388.58215,0.09087
1386.65357,0.08891
1384.72498,0.08772
1382.79639,0.08877
1380.86781,0.09058
1378.93922,0.09167
1377.01064,0.09187
1375.08205,0.09137
1373.15346,0.09033
1371.22488,0.08954
1369.29629,0.08865
1367.36770,0.08717
1365.43912,0.08600
1363.51053,0.08440
1361.58194,0.08252
1359.65336,0.08160
1357.72477,0.08098
1355.79619,0.08014
1353.86760,0.07937
1351.93901,0.07887
1350.01043,0.07834
1348.08184,0.07776
1346.15325,0.07714
1344.22467,0.07666
1342.29608,0.07651
1340.36750,0.07594
1338.43891,0.07519
1336.51032,0.07492
1334.58174,0.07478
1332.65315,0.07456
1330.72456,0.07436
1328.79598,0.07418
1326.86739,0.07394
1324.93880,0.07367
1323.01022,0.07335
1321.08163,0.07320
1319.15305,0.07309
1317.22446,0.07272
1315.29587,0.07261
1313.36729,0.07262
1311.43870,0.07239
1309.51011,0.07228
1307.58153,0.07227
1305.65294,0.07221
1303.72435,0.07210
1301.79577,0.07206
1299.86718,0.07215
1297.93860,0.07229
1296.01001,0.07253
1294.08142,0.07297
1292.15284,0.07357
1290.22425,0.07433
1288.29566,0.07534
1286.36708,0.07646
1284.43849,0.07771
1282.50991,0.07904
1280.58132,0.08027
1278.65273,0.08165
1276.72415,0.08299
1274.79556,0.08424
1272.86697,0.08583
1270.93839,0.08761
1269.00980,0.08941
1267.08121,0.09123
1265.15263,0.09329
1263.22404,0.09588
1261.29546,0.09884
1259.36687,0.10215
1257.43828,0.10574
1255.50970,0.10971
1253.58111,0.11407
1251.65252,0.11852
1249.72394,0.12297
1247.79535,0.12727
1245.86677,0.13137
1243.93818,0.13522
1242.00959,0.13891
1240.08101,0.14250
1238.15242,0.14542
1236.22383,0.14794
1234.29525,0.15043
1232.36666,0.15266
1230.43807,0.15474
1228.50949,0.15645
1226.58090,0.15802
1224.65232,0.15995
1222.72373,0.16189
1220.79514,0.16359
1218.86656,0.16526
1216.93797,0.16717
1215.00938,0.16922
1213.08080,0.17114
1211.15221,0.17298
1209.22363,0.17485
1207.29504,0.17672
1205.36645,0.17851
1203.43787,0.18026
1201.50928,0.18191
1199.58069,0.18326
1197.65211,0.18439
1195.72352,0.18594
1193.79493,0.18768
1191.86635,0.18892
1189.93776,0.19024
1188.00918,0.19169
1186.08059,0.19321
1184.15200,0.19496
1182.22342,0.19641
1180.29483,0.19804
1178.36624,0.20011
1176.43766,0.20235
1174.50907,0.20488
1172.58048,0.20746
1170.65190,0.20999
1168.72331,0.21240
1166.79473,0.21523
1164.86614,0.21829
1162.93755,0.22063
1161.00897,0.22237
1159.08038,0.22328
1157.15179,0.22366
1155.22321,0.22450
1153.29462,0.22552
1151.36604,0.22653
1149.43745,0.22794
1147.50886,0.22962
1145.58028,0.23146
1143.65169,0.23367
1141.72310,0.23604
1139.79452,0.23860
1137.86593,0.24165
1135.93734,0.24493
1134.00876,0.24791
1132.08017,0.25080
1130.15159,0.25404
1128.22300,0.25776
1126.29441,0.26226
1124.36583,0.26696
1122.43724,0.27178
1120.50865,0.27664
1118.58007,0.28095
1116.65148,0.28598
1114.72290,0.29180
1112.79431,0.29731
1110.86572,0.30264
1108.93714,0.30829
1107.00855,0.31379
1105.07996,0.31803
1103.15138,0.32147
1101.22279,0.32430
1099.29420,0.32667
1097.36562,0.32882
1095.43703,0.33030
1093.50845,0.33163
1091.57986,0.33281
1089.65127,0.33347
1087.72269,0.33318
1085.79410,0.33223
1083.86551,0.33134
1081.93693,0.33051
1080.00834,0.32985
1078.07976,0.32907
1076.15117,0.32791
1074.22258,0.32670
1072.29400,0.32610
1070.36541,0.32567
1068.43682,0.32538
1066.50824,0.32571
1064.57965,0.32582
1062.65106,0.32568
1060.72248,0.32491
1058.79389,0.32359
1056.86531,0.32228
1054.93672,0.32059
1053.00813,0.31870
1051.07955,0.31717
1049.15096,0.31647
1047.22237,0.31652
1045.29379,0.31726
1043.36520,0.31780
1041.43661,0.31832
1039.50803,0.31991
1037.57944,0.32149
1035.65086,0.32293
1033.72227,0.32354
1031.79368,0.32311
1029.86510,0.32259
1027.93651,0.32052
1026.00792,0.31742
1024.07934,0.31498
1022.15075,0.31266
1020.22217,0.30992
1018.29358,0.30728
1016.36499,0.30510
1014.43641,0.30267
1012.50782,0.30011
1010.57923,0.29822
1008.65065,0.29633
1006.72206,0.29334
1004.79347,0.28960
1002.86489,0.28602
1000.93630,0.28232
999.00772,0.27798
997.07913,0.27343
995.15054,0.26894
993.22196,0.26449
991.29337,0.25996
989.36478,0.25486
987.43620,0.24951
985.50761,0.24398
983.57903,0.23760
981.65044,0.23062
979.72185,0.22317
977.79327,0.21514
975.86468,0.20664
973.93609,0.19786
972.00751,0.18902
970.07892,0.18032
968.15033,0.17226
966.22175,0.16461
964.29316,0.15716
962.36458,0.15017
960.43599,0.14394
958.50740,0.13856
956.57882,0.13371
954.65023,0.12947
952.72164,0.12586
950.79306,0.12258
948.86447,0.11965
946.93589,0.11714
945.00730,0.11525
943.07871,0.11367
941.15013,0.11230
939.22154,0.11124
937.29295,0.11005
935.36437,0.10859
933.43578,0.10716
931.50719,0.10613
929.57861,0.10526
927.65002,0.10401
925.72144,0.10290
923.79285,0.10224
921.86426,0.10182
919.93568,0.10159
918.00709,0.10156
916.07850,0.10173
914.14992,0.10129
912.22133,0.09904
910.29274,0.09561
908.36416,0.09206
906.43557,0.08772
904.50699,0.08248
902.57840,0.07685
900.64981,0.07085
898.72123,0.06510
896.79264,0.05979
894.86405,0.05488
892.93547,0.05061
891.00688,0.04672
889.07830,0.04330
887.14971,0.04028
885.22112,0.03716
883.29254,0.03406
881.36395,0.03119
879.43536,0.02831
877.50678,0.02520
875.57819,0.02235
873.64960,0.01964
871.72102,0.01652
869.79243,0.01353
867.86385,0.01086
865.93526,0.00823
864.00667,0.00587
862.07809,0.00412
860.14950,0.00286
858.22091,0.00158
856.29233,0.00054
854.36374,0.00008
852.43516,0.00000
850.50657,0.00023
848.57798,0.00077
846.64940,0.00206
844.72081,0.00402
842.79222,0.00624
840.86364,0.00876
838.93505,0.01151
837.00646,0.01474
835.07788,0.01805
833.14929,0.02104
831.22071,0.02377
829.29212,0.02547
827.36353,0.02629
825.43495,0.02683
823.50636,0.02726
821.57777,0.02801
819.64919,0.02877
817.72060,0.02991
815.79201,0.03172
813.86343,0.03393
811.93484,0.03720
810.00626,0.04192
808.07767,0.04847
806.14908,0.05646
804.22050,0.06446
802.29191,0.07062
800.36332,0.07296
798.43474,0.07200
796.50615,0.06866
794.57757,0.06345
792.64898,0.05811
790.72039,0.05379
788.79181,0.05132
786.86322,0.05054
784.93463,0.05092
783.00605,0.05231
781.07746,0.05330
779.14887,0.05265
777.22029,0.04927
775.29170,0.04328
773.36312,0.03721
771.43453,0.03232
769.50594,0.02854
767.57736,0.02628
765.64877,0.02526
763.72018,0.02490
761.79160,0.02517
759.86301,0.02580
757.93443,0.02599
756.00584,0.02563
754.07725,0.02519
752.14867,0.02471
750.22008,0.02380
748.29149,0.02241
746.36291,0.02097
744.43432,0.01917
742.50573,0.01671
740.57715,0.01429
738.64856,0.01203
736.71998,0.01009
734.79139,0.00849
732.86280,0.00682
730.93422,0.00613
729.00563,0.00624
727.07704,0.00597
725.14846,0.00593
723.21987,0.00627
721.29129,0.00625
719.36270,0.00509
717.43411,0.00312
715.50553,0.00178
713.57694,0.00132
711.64835,0.00173
709.71977,0.00295
707.79118,0.00463
705.86259,0.00629
703.93401,0.00818
702.00542,0.01159
700.07684,0.01602
698.14825,0.02095
696.21966,0.02477
694.29108,0.02427
692.36249,0.02055
690.43390,0.01620
688.50532,0.01272
686.57673,0.01078
684.64814,0.00948
682.71956,0.00824
680.79097,0.00712
678.86239,0.00663
676.93380,0.00637
675.00521,0.00547
673.07663,0.00416
671.14804,0.00336
669.21945,0.00256
667.29087,0.00080
665.36228,0.00000
663.43370,-0.00023
661.50511,-0.00058
659.57652,-0.00076
657.64794,-0.00072
655.71935,-0.00006
653.79076,0.00067
651.86218,0.00172
649.93359,0.00268
648.00500,0.00267
646.07642,0.00234
644.14783,0.00147
642.21925,0.00130
640.29066,0.00194
638.36207,0.00198
636.43349,0.00210
634.50490,0.00244
632.57631,0.00305
630.64773,0.00379
628.71914,0.00372
626.79056,0.00339
624.86197,0.00383
622.93338,0.00422
621.00480,0.00433
619.07621,0.00534
617.14762,0.00635
615.21904,0.00636
613.29045,0.00615
611.36186,0.00672
609.43328,0.00759
607.50469,0.00825
605.57611,0.00949
603.64752,0.01107
601.71893,0.01330
599.79035,0.01560
597.86176,0.01747
595.93317,0.01985
594.00459,0.02184
592.07600,0.02347
590.14742,0.02606
588.21883,0.02911
586.29024,0.03151
584.36166,0.03437
582.43307,0.03863
580.50448,0.04318
578.57590,0.04700
576.64731,0.04972
574.71872,0.05308
572.79014,0.05783
570.86155,0.06359
568.93297,0.06901
567.00438,0.07268
565.07579,0.07713
563.14721,0.08172
561.21862,0.08578
559.29003,0.09080
557.36145,0.09554
555.43286,0.10014
553.50427,0.10380
551.57569,0.10690
549.64710,0.11158
547.71852,0.11708
545.78993,0.12197
543.86134,0.12537
541.93276,0.12931
540.00417,0.13493
538.07558,0.14054
536.14700,0.14597
534.21841,0.15144
532.28983,0.15566
530.36124,0.15698
528.43265,0.15638
526.50407,0.15586
524.57548,0.15458
522.64689,0.15137
520.71831,0.14641
518.78972,0.14083
516.86113,0.13625
514.93255,0.13176
513.00396,0.12638
511.07538,0.12201
509.14679,0.11791
507.21820,0.11370
505.28962,0.11257
503.36103,0.11337
501.43244,0.11405
499.50386,0.11708
497.57527,0.12320
495.64669,0.12932
493.71810,0.13551
491.78951,0.14388
489.86093,0.15463
487.93234,0.16627
486.00375,0.17540
484.07517,0.18413
482.14658,0.19513
480.21799,0.20788
478.28941,0.21993
476.36082,0.22472
474.43224,0.22310
472.50365,0.22035
470.57506,0.22087
468.64648,0.21836
466.71789,0.20565
464.78930,0.19454
462.86072,0.18784
460.93213,0.17974
459.00355,0.16855
457.07496,0.15495
455.14637,0.14298
453.21779,0.13274
451.28920,0.12408
449.36061,0.11364
447.43203,0.10496
445.50344,0.10008
443.57485,0.09406
441.64627,0.08989
439.71768,0.08864
437.78910,0.08725
435.86051,0.08107
433.93192,0.07660
432.00334,0.07841
430.07475,0.07669
428.14616,0.07154
426.21758,0.06749
424.28899,0.06166
422.36040,0.05480
420.43182,0.04811
418.50323,0.03581
416.57465,0.02835
414.64606,0.02715
412.71747,0.02602
410.78889,0.02322
408.86030,0.01067
406.93171,0.00252
405.00313,0.00167
403.07454,0.00000
401.14596,0.00184
399.21737,0.00000
