3747.24323,0.00000
3745.31464,0.00084
3743.38605,0.00118
3741.45747,0.00133
3739.52888,0.00185
3737.60030,0.00251
3735.67171,0.00310
3733.74312,0.00348
3731.81454,0.00403
3729.88595,0.00468
3727.95736,0.00540
3726.02878,0.00624
3724.10019,0.00720
3722.17161,0.00850
3720.24302,0.01002
3718.31443,0.01183
3716.38585,0.01390
3714.45726,0.01633
3712.52867,0.01928
3710.60009,0.02228
3708.67150,0.02518
3706.74291,0.02827
3704.81433,0.03174
3702.88574,0.03527
3700.95716,0.03811
3699.02857,0.04020
3697.09998,0.04150
3695.17140,0.04236
3693.24281,0.04309
3691.31422,0.04393
3689.38564,0.04514
3687.45705,0.04665
3685.52846,0.04860
3683.59988,0.05104
3681.67129,0.05402
3679.74271,0.05725
3677.81412,0.06086
3675.88553,0.06499
3673.95695,0.06904
3672.02836,0.07302
3670.09977,0.07746
3668.17119,0.08164
3666.24260,0.08540
3664.31402,0.08935
3662.38543,0.09348
3660.45684,0.09753
3658.52826,0.10136
3656.59967,0.10515
3654.67108,0.10859
3652.74250,0.11184
3650.81391,0.11527
3648.88532,0.11864
3646.95674,0.12157
3645.02815,0.12416
3643.09957,0.12693
3641.17098,0.12971
3639.24239,0.13231
3637.31381,0.13521
3635.38522,0.13825
3633.45663,0.14112
3631.52805,0.14380
3629.59946,0.14639
3627.67088,0.14846
3625.74229,0.14996
3623.81370,0.15138
3621.88512,0.15263
3619.95653,0.15319
3618.02794,0.15264
3616.09936,0.15182
3614.17077,0.15127
3612.24218,0.15094
3610.31360,0.15078
3608.38501,0.15070
3606.45643,0.15061
3604.52784,0.15051
3602.59925,0.15058
3600.67067,0.15085
3598.74208,0.15117
3596.81349,0.15152
3594.88491,0.15206
3592.95632,0.15265
3591.02774,0.15325
3589.09915,0.15396
3587.17056,0.15468
3585.24198,0.15558
3583.31339,0.15652
3581.38480,0.15742
3579.45622,0.15858
3577.52763,0.15982
3575.59904,0.16103
3573.67046,0.16240
3571.74187,0.16380
3569.81329,0.16509
3567.88470,0.16646
3565.95611,0.16782
3564.02753,0.16919
3562.09894,0.17080
3560.17035,0.17231
3558.24177,0.17370
3556.31318,0.17530
3554.38459,0.17700
3552.45601,0.17846
3550.52742,0.17971
3548.59884,0.18120
3546.67025,0.18273
3544.74166,0.18421
3542.81308,0.18574
3540.88449,0.18718
3538.95590,0.18869
3537.02732,0.19014
3535.09873,0.19138
3533.17015,0.19253
3531.24156,0.19394
3529.31297,0.19546
3527.38439,0.19681
3525.45580,0.19819
3523.52721,0.19954
3521.59863,0.20091
3519.67004,0.20216
3517.74145,0.20340
3515.81287,0.20466
3513.88428,0.20590
3511.95570,0.20735
3510.02711,0.20861
3508.09852,0.20978
3506.16994,0.21103
3504.24135,0.21224
3502.31276,0.21346
3500.38418,0.21463
3498.45559,0.21579
3496.52701,0.21700
3494.59842,0.21832
3492.66983,0.21947
3490.74125,0.22045
3488.81266,0.22140
3486.88407,0.22230
3484.95549,0.22336
3483.02690,0.22439
3481.09831,0.22537
3479.16973,0.22638
3477.24114,0.22724
3475.31256,0.22800
3473.38397,0.22898
3471.45538,0.22998
3469.52680,0.23079
3467.59821,0.23152
3465.66962,0.23226
3463.74104,0.23326
3461.81245,0.23416
3459.88386,0.23487
3457.95528,0.23557
3456.02669,0.23620
3454.09811,0.23703
3452.16952,0.23784
3450.24093,0.23855
3448.31235,0.23939
3446.38376,0.24019
3444.45517,0.24079
3442.52659,0.24139
3440.59800,0.24194
3438.66942,0.24244
3436.74083,0.24318
3434.81224,0.24385
3432.88366,0.24456
3430.95507,0.24531
3429.02648,0.24574
3427.09790,0.24633
3425.16931,0.24710
3423.24072,0.24777
3421.31214,0.24831
3419.38355,0.24884
3417.45497,0.24948
3415.52638,0.24999
3413.59779,0.25034
3411.66921,0.25071
3409.74062,0.25114
3407.81203,0.25152
3405.88345,0.25199
3403.95486,0.25245
3402.02628,0.25273
3400.09769,0.25296
3398.16910,0.25327
3396.24052,0.25371
3394.31193,0.25406
3392.38334,0.25437
3390.45476,0.25474
3388.52617,0.25506
3386.59758,0.25546
3384.66900,0.25588
3382.74041,0.25614
3380.81183,0.25624
3378.88324,0.25643
3376.95465,0.25675
3375.02607,0.25715
3373.09748,0.25766
3371.16889,0.25790
3369.24031,0.25804
3367.31172,0.25846
3365.38314,0.25889
3363.45455,0.25923
3361.52596,0.25942
3359.59738,0.25948
3357.66879,0.25977
3355.74020,0.26021
3353.81162,0.26050
3351.88303,0.26071
3349.95444,0.26075
3348.02586,0.26075
3346.09727,0.26094
3344.16869,0.26108
3342.24010,0.26125
3340.31151,0.26156
3338.38293,0.26176
3336.45434,0.26184
3334.52575,0.26186
3332.59717,0.26186
3330.66858,0.26189
3328.73999,0.26192
3326.81141,0.26195
3324.88282,0.26199
3322.95424,0.26194
3321.02565,0.26181
3319.09706,0.26190
3317.16848,0.26203
3315.23989,0.26191
3313.31130,0.26182
3311.38272,0.26168
3309.45413,0.26156
3307.52555,0.26158
3305.59696,0.26148
3303.66837,0.26135
3301.73979,0.26123
3299.81120,0.26108
3297.88261,0.26069
3295.95403,0.26030
3294.02544,0.26017
3292.09685,0.25993
3290.16827,0.25964
3288.23968,0.25933
3286.31110,0.25892
3284.38251,0.25845
3282.45392,0.25776
3280.52534,0.25705
3278.59675,0.25645
3276.66816,0.25569
3274.73958,0.25483
3272.81099,0.25405
3270.88241,0.25322
3268.95382,0.25234
3267.02523,0.25129
3265.09665,0.25010
3263.16806,0.24898
3261.23947,0.24782
3259.31089,0.24667
3257.38230,0.24553
3255.45371,0.24446
3253.52513,0.24352
3251.59654,0.24254
3249.66796,0.24157
3247.73937,0.24044
3245.81078,0.23934
3243.88220,0.23843
3241.95361,0.23742
3240.02502,0.23640
3238.09644,0.23540
3236.16785,0.23441
3234.23927,0.23349
3232.31068,0.23262
3230.38209,0.23174
3228.45351,0.23086
3226.52492,0.23000
3224.59633,0.22918
3222.66775,0.22842
3220.73916,0.22752
3218.81057,0.22652
3216.88199,0.22556
3214.95340,0.22472
3213.02482,0.22390
3211.09623,0.22300
3209.16764,0.22210
3207.23906,0.22114
3205.31047,0.22023
3203.38188,0.21939
3201.45330,0.21840
3199.52471,0.21740
3197.59612,0.21651
3195.66754,0.21560
3193.73895,0.21460
3191.81037,0.21361
3189.88178,0.21257
3187.95319,0.21145
3186.02461,0.21053
3184.09602,0.20973
3182.16743,0.20881
3180.23885,0.20785
3178.31026,0.20681
3176.38168,0.20571
3174.45309,0.20475
3172.52450,0.20387
3170.59592,0.20290
3168.66733,0.20187
3166.73874,0.20084
3164.81016,0.19985
3162.88157,0.19886
3160.95298,0.19798
3159.02440,0.19709
3157.09581,0.19608
3155.16723,0.19521
3153.23864,0.19442
3151.31005,0.19353
3149.38147,0.19268
3147.45288,0.19174
3145.52429,0.19078
3143.59571,0.19003
3141.66712,0.18932
3139.73854,0.18863
3137.80995,0.18787
3135.88136,0.18701
3133.95278,0.18630
3132.02419,0.18566
3130.09560,0.18515
3128.16702,0.18457
3126.23843,0.18389
3124.30984,0.18344
3122.38126,0.18299
3120.45267,0.18250
3118.52409,0.18207
3116.59550,0.18151
3114.66691,0.18093
3112.73833,0.18049
3110.80974,0.18007
3108.88115,0.17968
3106.95257,0.17925
3105.02398,0.17874
3103.09540,0.17834
3101.16681,0.17804
3099.23822,0.17775
3097.30964,0.17732
3095.38105,0.17686
3093.45246,0.17661
3091.52388,0.17631
3089.59529,0.17592
3087.66670,0.17553
3085.73812,0.17508
3083.80953,0.17469
3081.88095,0.17427
3079.95236,0.17385
3078.02377,0.17344
3076.09519,0.17289
3074.16660,0.17227
3072.23801,0.17167
3070.30943,0.17111
3068.38084,0.17053
3066.45225,0.16984
3064.52367,0.16909
3062.59508,0.16842
3060.66650,0.16777
3058.73791,0.16702
3056.80932,0.16634
3054.88074,0.16557
3052.95215,0.16463
3051.02356,0.16384
3049.09498,0.16312
3047.16639,0.16234
3045.23781,0.16153
3043.30922,0.16077
3041.38063,0.16002
3039.45205,0.15928
3037.52346,0.15872
3035.59487,0.15822
3033.66629,0.15768
3031.73770,0.15713
3029.80911,0.15658
3027.88053,0.15610
3025.95194,0.15558
3024.02336,0.15512
3022.09477,0.15473
3020.16618,0.15435
3018.23760,0.15417
3016.30901,0.15410
3014.38042,0.15407
3012.45184,0.15417
3010.52325,0.15432
3008.59467,0.15451
3006.66608,0.15479
3004.73749,0.15521
3002.80891,0.15574
3000.88032,0.15635
2998.95173,0.15701
2997.02315,0.15777
2995.09456,0.15875
2993.16597,0.15988
2991.23739,0.16114
2989.30880,0.16255
2987.38022,0.16425
2985.45163,0.16626
2983.52304,0.16839
2981.59446,0.17062
2979.66587,0.17293
2977.73728,0.17528
2975.80870,0.17767
2973.88011,0.18011
2971.95153,0.18277
2970.02294,0.18556
2968.09435,0.18847
2966.16577,0.19156
2964.23718,0.19459
2962.30859,0.19744
2960.38001,0.20009
2958.45142,0.20267
2956.52283,0.20527
2954.59425,0.20777
2952.66566,0.21013
2950.73708,0.21237
2948.80849,0.21496
2946.87990,0.21825
2944.95132,0.22205
2943.02273,0.22648
2941.09414,0.23152
2939.16556,0.23697
2937.23697,0.24265
2935.30838,0.24845
2933.37980,0.25413
2931.45121,0.25933
2929.52263,0.26398
2927.59404,0.26808
2925.66545,0.27131
2923.73687,0.27327
2921.80828,0.27331
2919.87969,0.27108
2917.95111,0.26645
2916.02252,0.25912
2914.09394,0.24955
2912.16535,0.23960
2910.23676,0.23103
2908.30818,0.22415
2906.37959,0.21870
2904.45100,0.21419
2902.52242,0.21014
2900.59383,0.20648
2898.66524,0.20306
2896.73666,0.19985
2894.80807,0.19678
2892.87949,0.19364
2890.95090,0.19063
2889.02231,0.18776
2887.09373,0.18510
2885.16514,0.18284
2883.23655,0.18088
2881.30797,0.17931
2879.37938,0.17832
2877.45080,0.17776
2875.52221,0.17763
2873.59362,0.17793
2871.66504,0.17825
2869.73645,0.17858
2867.80786,0.17934
2865.87928,0.18085
2863.95069,0.18329
2862.02210,0.18699
2860.09352,0.19212
2858.16493,0.19836
2856.23635,0.20518
2854.30776,0.21138
2852.37917,0.21492
2850.45059,0.21335
2848.52200,0.20497
2846.59341,0.19166
2844.66483,0.17766
2842.73624,0.16550
2840.80766,0.15559
2838.87907,0.14760
2836.95048,0.14116
2835.02190,0.13595
2833.09331,0.13175
2831.16472,0.12821
2829.23614,0.12507
2827.30755,0.12234
2825.37896,0.11986
2823.45038,0.11766
2821.52179,0.11564
2819.59321,0.11370
2817.66462,0.11202
2815.73603,0.11048
2813.80745,0.10906
2811.87886,0.10774
2809.95027,0.10635
2808.02169,0.10496
2806.09310,0.10378
2804.16451,0.10275
2802.23593,0.10163
2800.30734,0.10054
2798.37876,0.09957
2796.45017,0.09863
2794.52158,0.09769
2792.59300,0.09681
2790.66441,0.09595
2788.73582,0.09501
2786.80724,0.09411
2784.87865,0.09336
2782.95007,0.09266
2781.02148,0.09196
2779.09289,0.09125
2777.16431,0.09056
2775.23572,0.08991
2773.30713,0.08931
2771.37855,0.08867
2769.44996,0.08809
2767.52137,0.08756
2765.59279,0.08690
2763.66420,0.08626
2761.73562,0.08578
2759.80703,0.08534
2757.87844,0.08485
2755.94986,0.08440
2754.02127,0.08393
2752.09268,0.08345
2750.16410,0.08300
2748.23551,0.08255
2746.30693,0.08214
2744.37834,0.08182
2742.44975,0.08150
2740.52117,0.08111
2738.59258,0.08068
2736.66399,0.08027
2734.73541,0.07993
2732.80682,0.07956
2730.87823,0.07905
2728.94965,0.07860
2727.02106,0.07815
2725.09248,0.07759
2723.16389,0.07703
2721.23530,0.07653
2719.30672,0.07611
2717.37813,0.07564
2715.44954,0.07508
2713.52096,0.07461
2711.59237,0.07420
2709.66379,0.07371
2707.73520,0.07323
2705.80661,0.07279
2703.87803,0.07230
2701.94944,0.07183
2700.02085,0.07140
2698.09227,0.07102
2696.16368,0.07065
2694.23509,0.07028
2692.30651,0.06998
2690.37792,0.06965
2688.44934,0.06938
2686.52075,0.06913
2684.59216,0.06877
2682.66358,0.06841
2680.73499,0.06797
2678.80640,0.06755
2676.87782,0.06724
2674.94923,0.06689
2673.02064,0.06651
2671.09206,0.06616
2669.16347,0.06574
2667.23489,0.06526
2665.30630,0.06486
2663.37771,0.06454
2661.44913,0.06415
2659.52054,0.06374
2657.59195,0.06345
2655.66337,0.06317
2653.73478,0.06276
2651.80620,0.06234
2649.87761,0.06191
2647.94902,0.06152
2646.02044,0.06121
2644.09185,0.06087
2642.16326,0.06054
2640.23468,0.06017
2638.30609,0.05983
2636.37750,0.05951
2634.44892,0.05919
2632.52033,0.05885
2630.59175,0.05845
2628.66316,0.05802
2626.73457,0.05759
2624.80599,0.05726
2622.87740,0.05694
2620.94881,0.05650
2619.02023,0.05603
2617.09164,0.05557
2615.16306,0.05520
2613.23447,0.05488
2611.30588,0.05452
2609.37730,0.05416
2607.44871,0.05372
2605.52012,0.05324
2603.59154,0.05288
2601.66295,0.05261
2599.73436,0.05223
2597.80578,0.05173
2595.87719,0.05125
2593.94861,0.05086
2592.02002,0.05052
2590.09143,0.05014
2588.16285,0.04976
2586.23426,0.04940
2584.30567,0.04904
2582.37709,0.04865
2580.44850,0.04822
2578.51991,0.04781
2576.59133,0.04745
2574.66274,0.04708
2572.73416,0.04672
2570.80557,0.04637
2568.87698,0.04603
2566.94840,0.04567
2565.01981,0.04535
2563.09122,0.04506
2561.16264,0.04477
2559.23405,0.04446
2557.30547,0.04412
2555.37688,0.04378
2553.44829,0.04350
2551.51971,0.04317
2549.59112,0.04277
2547.66253,0.04241
2545.73395,0.04214
2543.80536,0.04193
2541.87677,0.04159
2539.94819,0.04122
2538.01960,0.04093
2536.09102,0.04063
2534.16243,0.04038
2532.23384,0.04007
2530.30526,0.03975
2528.37667,0.03953
2526.44808,0.03927
2524.51950,0.03893
2522.59091,0.03859
2520.66233,0.03829
2518.73374,0.03800
2516.80515,0.03770
2514.87657,0.03742
2512.94798,0.03707
2511.01939,0.03673
2509.09081,0.03642
2507.16222,0.03609
2505.23363,0.03572
2503.30505,0.03531
2501.37646,0.03505
2499.44788,0.03491
2497.51929,0.03457
2495.59070,0.03414
2493.66212,0.03385
2491.73353,0.03361
2489.80494,0.03326
2487.87636,0.03284
2485.94777,0.03249
2484.01919,0.03222
2482.09060,0.03187
2480.16201,0.03146
2478.23343,0.03111
2476.30484,0.03083
2474.37625,0.03053
2472.44767,0.03018
2470.51908,0.02989
2468.59049,0.02955
2466.66191,0.02918
2464.73332,0.02889
2462.80474,0.02860
2460.87615,0.02826
2458.94756,0.02791
2457.01898,0.02756
2455.09039,0.02719
2453.16180,0.02686
2451.23322,0.02655
2449.30463,0.02616
2447.37604,0.02586
2445.44746,0.02560
2443.51887,0.02527
2441.59029,0.02499
2439.66170,0.02474
2437.73311,0.02444
2435.80453,0.02406
2433.87594,0.02369
2431.94735,0.02339
2430.01877,0.02306
2428.09018,0.02274
2426.16160,0.02243
2424.23301,0.02205
2422.30442,0.02173
2420.37584,0.02143
2418.44725,0.02112
2416.51866,0.02084
2414.59008,0.02053
2412.66149,0.02021
2410.73290,0.01992
2408.80432,0.01966
2406.87573,0.01936
2404.94715,0.01903
2403.01856,0.01876
2401.08997,0.01847
2399.16139,0.01813
2397.23280,0.01774
2395.30421,0.01742
2393.37563,0.01719
2391.44704,0.01692
2389.51846,0.01656
2387.58987,0.01618
2385.66128,0.01595
2383.73270,0.01568
2381.80411,0.01533
2379.87552,0.01507
2377.94694,0.01473
2376.01835,0.01432
2374.08976,0.01393
2372.16118,0.01355
2370.23259,0.01322
2368.30401,0.01284
2366.37542,0.01250
2364.44683,0.01220
2362.51825,0.01192
2360.58966,0.01161
2358.66107,0.01133
2356.73249,0.01126
2354.80390,0.01119
2352.87532,0.01113
2350.94673,0.01111
2349.01814,0.01094
2347.08956,0.01064
2345.16097,0.01032
2343.23238,0.01007
2341.30380,0.00992
2339.37521,0.00988
2337.44662,0.00969
2335.51804,0.00934
2333.58945,0.00906
2331.66087,0.00881
2329.73228,0.00860
2327.80369,0.00847
2325.87511,0.00829
2323.94652,0.00814
2322.01793,0.00803
2320.08935,0.00789
2318.16076,0.00778
2316.23217,0.00768
2314.30359,0.00748
2312.37500,0.00725
2310.44642,0.00712
2308.51783,0.00699
2306.58924,0.00682
2304.66066,0.00667
2302.73207,0.00658
2300.80348,0.00652
2298.87490,0.00636
2296.94631,0.00612
2295.01773,0.00597
2293.08914,0.00588
2291.16055,0.00576
2289.23197,0.00552
2287.30338,0.00528
2285.37479,0.00516
2283.44621,0.00505
2281.51762,0.00494
2279.58903,0.00481
2277.66045,0.00466
2275.73186,0.00453
2273.80328,0.00434
2271.87469,0.00417
2269.94610,0.00411
2268.01752,0.00405
2266.08893,0.00395
2264.16034,0.00380
2262.23176,0.00366
2260.30317,0.00356
2258.37459,0.00343
2256.44600,0.00331
2254.51741,0.00323
2252.58883,0.00315
2250.66024,0.00301
2248.73165,0.00293
2246.80307,0.00292
2244.87448,0.00282
2242.94589,0.00273
2241.01731,0.00267
2239.08872,0.00258
2237.16014,0.00249
2235.23155,0.00235
2233.30296,0.00225
2231.37438,0.00221
2229.44579,0.00214
2227.51720,0.00211
2225.58862,0.00203
2223.66003,0.00192
2221.73145,0.00180
2219.80286,0.00166
2217.87427,0.00164
2215.94569,0.00158
2214.01710,0.00146
2212.08851,0.00141
2210.15993,0.00140
2208.23134,0.00134
2206.30275,0.00124
2204.37417,0.00117
2202.44558,0.00115
2200.51700,0.00115
2198.58841,0.00108
2196.65982,0.00105
2194.73124,0.00109
2192.80265,0.00104
2190.87406,0.00096
2188.94548,0.00099
2187.01689,0.00108
2185.08830,0.00105
2183.15972,0.00098
2181.23113,0.00100
2179.30255,0.00099
2177.37396,0.00095
2175.44537,0.00087
2173.51679,0.00077
2171.58820,0.00069
2169.65961,0.00067
2167.73103,0.00078
2165.80244,0.00085
2163.87386,0.00085
2161.94527,0.00087
2160.01668,0.00087
2158.08810,0.00084
2156.15951,0.00085
2154.23092,0.00088
2152.30234,0.00085
2150.37375,0.00085
2148.44516,0.00086
2146.51658,0.00081
2144.58799,0.00077
2142.65941,0.00071
2140.73082,0.00066
2138.80223,0.00065
2136.87365,0.00063
2134.94506,0.00064
2133.01647,0.00058
2131.08789,0.00052
2129.15930,0.00050
2127.23072,0.00044
2125.30213,0.00038
2123.37354,0.00033
2121.44496,0.00029
2119.51637,0.00025
2117.58778,0.00019
2115.65920,0.00022
2113.73061,0.00026
2111.80202,0.00023
2109.87344,0.00019
2107.94485,0.00019
2106.01627,0.00017
2104.08768,0.00012
2102.15909,0.00012
2100.23051,0.00013
2098.30192,0.00012
2096.37333,0.00008
2094.44475,0.00010
2092.51616,0.00013
2090.58758,0.00007
2088.65899,0.00003
2086.73040,0.00001
2084.80182,0.00000
2082.87323,0.00001
2080.94464,0.00001
2079.01606,0.00000
2077.08747,-0.00004
2075.15888,-0.00006
2073.23030,-0.00009
2071.30171,-0.00008
2069.37313,-0.00003
2067.44454,-0.00001
2065.51595,-0.00003
2063.58737,0.00003
2061.65878,0.00007
2059.73019,0.00006
2057.80161,0.00013
2055.87302,0.00009
2053.94443,0.00005
2052.01585,0.00013
2050.08726,0.00017
2048.15868,0.00023
2046.23009,0.00033
2044.30150,0.00048
2042.37292,0.00067
2040.44433,0.00084
2038.51574,0.00099
2036.58716,0.00112
2034.65857,0.00119
2032.72999,0.00132
2030.80140,0.00146
2028.87281,0.00153
2026.94423,0.00161
2025.01564,0.00167
2023.08705,0.00175
2021.15847,0.00177
2019.22988,0.00176
2017.30129,0.00189
2015.37271,0.00200
2013.44412,0.00211
2011.51554,0.00226
2009.58695,0.00243
2007.65836,0.00256
2005.72978,0.00256
2003.80119,0.00258
2001.87260,0.00264
1999.94402,0.00273
1998.01543,0.00276
1996.08685,0.00271
1994.15826,0.00266
1992.22967,0.00265
1990.30109,0.00267
1988.37250,0.00259
1986.44391,0.00245
1984.51533,0.00236
1982.58674,0.00237
1980.65815,0.00239
1978.72957,0.00232
1976.80098,0.00227
1974.87240,0.00213
1972.94381,0.00200
1971.01522,0.00200
1969.08664,0.00192
1967.15805,0.00176
1965.22946,0.00159
1963.30088,0.00143
1961.37229,0.00129
1959.44371,0.00115
1957.51512,0.00104
1955.58653,0.00092
1953.65795,0.00088
1951.72936,0.00089
1949.80077,0.00084
1947.87219,0.00069
1945.94360,0.00059
1944.01501,0.00055
1942.08643,0.00050
1940.15784,0.00040
1938.22926,0.00034
1936.30067,0.00034
1934.37208,0.00022
1932.44350,0.00008
1930.51491,0.00000
1928.58632,-0.00001
1926.65774,0.00002
1924.72915,0.00000
1922.80056,-0.00002
1920.87198,0.00003
1918.94339,0.00014
1917.01481,0.00030
1915.08622,0.00044
1913.15763,0.00067
1911.22905,0.00103
1909.30046,0.00144
1907.37187,0.00178
1905.44329,0.00217
1903.51470,0.00260
1901.58612,0.00300
1899.65753,0.00341
1897.72894,0.00379
1895.80036,0.00420
1893.87177,0.00454
1891.94318,0.00488
1890.01460,0.00533
1888.08601,0.00562
1886.15742,0.00574
1884.22884,0.00585
1882.30025,0.00597
1880.37167,0.00611
1878.44308,0.00627
1876.51449,0.00637
1874.58591,0.00639
1872.65732,0.00638
1870.72873,0.00633
1868.80015,0.00632
1866.87156,0.00612
1864.94298,0.00572
1863.01439,0.00531
1861.08580,0.00482
1859.15722,0.00431
1857.22863,0.00371
1855.30004,0.00311
1853.37146,0.00250
1851.44287,0.00194
1849.51428,0.00152
1847.58570,0.00112
1845.65711,0.00085
1843.72853,0.00060
1841.79994,0.00027
1839.87135,0.00000
1837.94277,-0.00020
1836.01418,-0.00025
1834.08559,-0.00028
1832.15701,-0.00019
1830.22842,-0.00002
1828.29984,0.00018
1826.37125,0.00039
1824.44266,0.00070
1822.51408,0.00112
1820.58549,0.00162
1818.65690,0.00223
1816.72832,0.00287
1814.79973,0.00364
1812.87114,0.00457
1810.94256,0.00569
1809.01397,0.00685
1807.08539,0.00810
1805.15680,0.00959
1803.22821,0.01118
1801.29963,0.01299
1799.37104,0.01491
1797.44245,0.01692
1795.51387,0.01903
1793.58528,0.02137
1791.65669,0.02397
1789.72811,0.02636
1787.79952,0.02885
1785.87094,0.03151
1783.94235,0.03418
1782.01376,0.03689
1780.08518,0.03960
1778.15659,0.04227
1776.22800,0.04480
1774.29942,0.04746
1772.37083,0.05021
1770.44225,0.05269
1768.51366,0.05499
1766.58507,0.05738
1764.65649,0.05988
1762.72790,0.06257
1760.79931,0.06549
1758.87073,0.06833
1756.94214,0.07167
1755.01355,0.07536
1753.08497,0.07906
1751.15638,0.08336
1749.22780,0.08792
1747.29921,0.09260
1745.37062,0.09749
1743.44204,0.10264
1741.51345,0.10795
1739.58486,0.11333
1737.65628,0.11809
1735.72769,0.12217
1733.79911,0.12642
1731.87052,0.12995
1729.94193,0.13298
1728.01335,0.13609
1726.08476,0.13916
1724.15617,0.14246
1722.22759,0.14592
1720.29900,0.14931
1718.37041,0.15284
1716.44183,0.15643
1714.51324,0.15944
1712.58466,0.16221
1710.65607,0.16503
1708.72748,0.16759
1706.79890,0.17032
1704.87031,0.17320
1702.94172,0.17608
1701.01314,0.17950
1699.08455,0.18315
1697.15596,0.18638
1695.22738,0.18984
1693.29879,0.19319
1691.37021,0.19629
1689.44162,0.19985
1687.51303,0.20333
1685.58445,0.20695
1683.65586,0.21088
1681.72727,0.21432
1679.79869,0.21751
1677.87010,0.22079
1675.94152,0.22429
1674.01293,0.22748
1672.08434,0.23029
1670.15576,0.23296
1668.22717,0.23558
1666.29858,0.23757
1664.37000,0.23929
1662.44141,0.24111
1660.51282,0.24222
1658.58424,0.24287
1656.65565,0.24310
1654.72707,0.24336
1652.79848,0.24307
1650.86989,0.24194
1648.94131,0.24111
1647.01272,0.24039
1645.08413,0.23971
1643.15555,0.23877
1641.22696,0.23819
1639.29838,0.23785
1637.36979,0.23760
1635.44120,0.23743
1633.51262,0.23674
1631.58403,0.23584
1629.65544,0.23442
1627.72686,0.23265
1625.79827,0.23032
1623.86968,0.22749
1621.94110,0.22445
1620.01251,0.22144
1618.08393,0.21884
1616.15534,0.21594
1614.22675,0.21334
1612.29817,0.21089
1610.36958,0.20853
1608.44099,0.20642
1606.51241,0.20437
1604.58382,0.20241
1602.65524,0.20013
1600.72665,0.19788
1598.79806,0.19566
1596.86948,0.19370
1594.94089,0.19186
1593.01230,0.18985
1591.08372,0.18790
1589.15513,0.18587
1587.22654,0.18390
1585.29796,0.18172
1583.36937,0.17957
1581.44079,0.17736
1579.51220,0.17533
1577.58361,0.17388
1575.65503,0.17235
1573.72644,0.17096
1571.79785,0.17007
1569.86927,0.16966
1567.94068,0.16939
1566.01209,0.16930
1564.08351,0.16951
1562.15492,0.16988
1560.22634,0.17071
1558.29775,0.17159
1556.36916,0.17204
1554.44058,0.17251
1552.51199,0.17309
1550.58340,0.17360
1548.65482,0.17396
1546.72623,0.17425
1544.79765,0.17442
1542.86906,0.17439
1540.94047,0.17418
1539.01189,0.17360
1537.08330,0.17274
1535.15471,0.17184
1533.22613,0.17093
1531.29754,0.16977
1529.36895,0.16851
1527.44037,0.16742
1525.51178,0.16649
1523.58320,0.16587
1521.65461,0.16561
1519.72602,0.16565
1517.79744,0.16567
1515.86885,0.16521
1513.94026,0.16345
1512.01168,0.16032
1510.08309,0.15665
1508.15451,0.15318
1506.22592,0.14922
1504.29733,0.14449
1502.36875,0.14000
1500.44016,0.13580
1498.51157,0.13161
1496.58299,0.12737
1494.65440,0.12311
1492.72581,0.11954
1490.79723,0.11661
1488.86864,0.11382
1486.94006,0.11171
1485.01147,0.11033
1483.08288,0.10971
1481.15430,0.10997
1479.22571,0.11099
1477.29712,0.11313
1475.36854,0.11680
1473.43995,0.12237
1471.51137,0.12945
1469.58278,0.13635
1467.65419,0.14192
1465.72561,0.14534
1463.79702,0.14687
1461.86843,0.14753
1459.93985,0.14821
1458.01126,0.14941
1456.08267,0.15035
1454.15409,0.15042
1452.22550,0.15001
1450.29692,0.14956
1448.36833,0.14908
1446.43974,0.14857
1444.51116,0.14801
1442.58257,0.14746
1440.65398,0.14711
1438.72540,0.14699
1436.79681,0.14698
1434.86822,0.14652
1432.93964,0.14603
1431.01105,0.14576
1429.08247,0.14545
1427.15388,0.14523
1425.22529,0.14510
1423.29671,0.14520
1421.36812,0.14524
1419.43953,0.14517
1417.51095,0.14496
1415.58236,0.14441
1413.65378,0.14374
1411.72519,0.14291
1409.79660,0.14204
1407.86802,0.14107
1405.93943,0.13995
1404.01084,0.13879
1402.08226,0.13754
1400.15367,0.13621
1398.22508,0.13500
1396.29650,0.13385
1394.36791,0.13266
1392.43933,0.13164
1390.51074,0.13080
1388.58215,0.12941
1386.65357,0.12576
1384.72498,0.12219
1382.79639,0.12376
1380.86781,0.12856
1378.93922,0.13166
1377.01064,0.13247
1375.08205,0.13221
1373.15346,0.13163
1371.22488,0.13074
1369.29629,0.12957
1367.36770,0.12818
1365.43912,0.12666
1363.51053,0.12512
1361.58194,0.12367
1359.65336,0.12241
1357.72477,0.12126
1355.79619,0.12036
1353.86760,0.11955
1351.93901,0.11886
1350.01043,0.11836
1348.08184,0.11775
1346.15325,0.11721
1344.22467,0.11684
1342.29608,0.11649
1340.36750,0.11608
1338.43891,0.11554
1336.51032,0.11502
1334.58174,0.11460
1332.65315,0.11427
1330.72456,0.11384
1328.79598,0.11333
1326.86739,0.11305
1324.93880,0.11295
1323.01022,0.11263
1321.08163,0.11219
1319.15305,0.11189
1317.22446,0.11148
1315.29587,0.11096
1313.36729,0.11056
1311.43870,0.11026
1309.51011,0.10996
1307.58153,0.10965
1305.65294,0.10945
1303.72435,0.10932
1301.79577,0.10917
1299.86718,0.10909
1297.93860,0.10910
1296.01001,0.10930
1294.08142,0.10989
1292.15284,0.11069
1290.22425,0.11155
1288.29566,0.11265
1286.36708,0.11398
1284.43849,0.11546
1282.50991,0.11698
1280.58132,0.11855
1278.65273,0.12042
1276.72415,0.12246
1274.79556,0.12443
1272.86697,0.12650
1270.93839,0.12868
1269.00980,0.13099
1267.08121,0.13360
1265.15263,0.13632
1263.22404,0.13919
1261.29546,0.14252
1259.36687,0.14640
1257.43828,0.15093
1255.50970,0.15596
1253.58111,0.16142
1251.65252,0.16708
1249.72394,0.17273
1247.79535,0.17840
1245.86677,0.18394
1243.93818,0.18938
1242.00959,0.19449
1240.08101,0.19916
1238.15242,0.20336
1236.22383,0.20704
1234.29525,0.21056
1232.36666,0.21374
1230.43807,0.21655
1228.50949,0.21914
1226.58090,0.22142
1224.65232,0.22352
1222.72373,0.22561
1220.79514,0.22766
1218.86656,0.22952
1216.93797,0.23122
1215.00938,0.23279
1213.08080,0.23440
1211.15221,0.23596
1209.22363,0.23731
1207.29504,0.23872
1205.36645,0.23995
1203.43787,0.24102
1201.50928,0.24217
1199.58069,0.24313
1197.65211,0.24422
1195.72352,0.24548
1193.79493,0.24673
1191.86635,0.24799
1189.93776,0.24912
1188.00918,0.25026
1186.08059,0.25165
1184.15200,0.25324
1182.22342,0.25510
1180.29483,0.25712
1178.36624,0.25923
1176.43766,0.26161
1174.50907,0.26426
1172.58048,0.26700
1170.65190,0.26969
1168.72331,0.27234
1166.79473,0.27488
1164.86614,0.27725
1162.93755,0.27949
1161.00897,0.28146
1159.08038,0.28300
1157.15179,0.28418
1155.22321,0.28540
1153.29462,0.28675
1151.36604,0.28829
1149.43745,0.29018
1147.50886,0.29182
1145.58028,0.29342
1143.65169,0.29564
1141.72310,0.29826
1139.79452,0.30091
1137.86593,0.30368
1135.93734,0.30710
1134.00876,0.31079
1132.08017,0.31417
1130.15159,0.31775
1128.22300,0.32200
1126.29441,0.32675
1124.36583,0.33129
1122.43724,0.33588
1120.50865,0.34094
1118.58007,0.34647
1116.65148,0.35243
1114.72290,0.35823
1112.79431,0.36433
1110.86572,0.37111
1108.93714,0.37756
1107.00855,0.38325
1105.07996,0.38822
1103.15138,0.39230
1101.22279,0.39572
1099.29420,0.39843
1097.36562,0.39979
1095.43703,0.40029
1093.50845,0.40053
1091.57986,0.40044
1089.65127,0.39989
1087.72269,0.39893
1085.79410,0.39802
1083.86551,0.39625
1081.93693,0.39370
1080.00834,0.39161
1078.07976,0.38944
1076.15117,0.38665
1074.22258,0.38387
1072.29400,0.38181
1070.36541,0.37977
1068.43682,0.37700
1066.50824,0.37418
1064.57965,0.37172
1062.65106,0.36899
1060.72248,0.36572
1058.79389,0.36244
1056.86531,0.35908
1054.93672,0.35572
1053.00813,0.35231
1051.07955,0.34896
1049.15096,0.34629
1047.22237,0.34423
1045.29379,0.34286
1043.36520,0.34199
1041.43661,0.34117
1039.50803,0.34018
1037.57944,0.33880
1035.65086,0.33749
1033.72227,0.33612
1031.79368,0.33397
1029.86510,0.33089
1027.93651,0.32702
1026.00792,0.32242
1024.07934,0.31774
1022.15075,0.31351
1020.22217,0.30927
1018.29358,0.30500
1016.36499,0.30092
1014.43641,0.29688
1012.50782,0.29281
1010.57923,0.28890
1008.65065,0.28502
1006.72206,0.28050
1004.79347,0.27556
1002.86489,0.27062
1000.93630,0.26540
999.00772,0.25962
997.07913,0.25391
995.15054,0.24862
993.22196,0.24329
991.29337,0.23776
989.36478,0.23178
987.43620,0.22544
985.50761,0.21891
983.57903,0.21194
981.65044,0.20478
979.72185,0.19732
977.79327,0.18955
975.86468,0.18161
973.93609,0.17352
972.00751,0.16576
970.07892,0.15849
968.15033,0.15158
966.22175,0.14487
964.29316,0.13860
962.36458,0.13322
960.43599,0.12852
958.50740,0.12405
956.57882,0.11981
954.65023,0.11596
952.72164,0.11260
950.79306,0.10978
948.86447,0.10739
946.93589,0.10524
945.00730,0.10339
943.07871,0.10193
941.15013,0.10076
939.22154,0.09940
937.29295,0.09774
935.36437,0.09619
933.43578,0.09473
931.50719,0.09329
929.57861,0.09197
927.65002,0.09078
925.72144,0.08987
923.79285,0.08927
921.86426,0.08868
919.93568,0.08801
918.00709,0.08735
916.07850,0.08665
914.14992,0.08568
912.22133,0.08391
910.29274,0.08142
908.36416,0.07824
906.43557,0.07390
904.50699,0.06893
902.57840,0.06401
900.64981,0.05933
898.72123,0.05496
896.79264,0.05103
894.86405,0.04754
892.93547,0.04398
891.00688,0.04039
889.07830,0.03743
887.14971,0.03472
885.22112,0.03153
883.29254,0.02853
881.36395,0.02613
879.43536,0.02360
877.50678,0.02080
875.57819,0.01836
873.64960,0.01606
871.72102,0.01328
869.79243,0.01064
867.86385,0.00856
865.93526,0.00664
864.00667,0.00478
862.07809,0.00315
860.14950,0.00184
858.22091,0.00063
856.29233,0.00000
854.36374,-0.00003
852.43516,-0.00005
850.50657,0.00038
848.57798,0.00140
846.64940,0.00303
844.72081,0.00488
842.79222,0.00689
840.86364,0.00973
838.93505,0.01318
837.00646,0.01683
835.07788,0.02020
833.14929,0.02317
831.22071,0.02586
829.29212,0.02812
827.36353,0.02971
825.43495,0.03078
823.50636,0.03193
821.57777,0.03314
819.64919,0.03462
817.72060,0.03617
815.79201,0.03735
813.86343,0.03904
811.93484,0.04139
810.00626,0.04410
808.07767,0.04784
806.14908,0.05247
804.22050,0.05651
802.29191,0.05953
800.36332,0.06110
798.43474,0.06034
796.50615,0.05776
794.57757,0.05443
792.64898,0.05103
790.72039,0.04803
788.79181,0.04576
786.86322,0.04408
784.93463,0.04326
783.00605,0.04326
781.07746,0.04254
779.14887,0.04066
777.22029,0.03757
775.29170,0.03348
773.36312,0.02879
771.43453,0.02409
769.50594,0.02120
767.57736,0.01964
765.64877,0.01774
763.72018,0.01669
761.79160,0.01757
759.86301,0.01835
757.93443,0.01805
756.00584,0.01754
754.07725,0.01714
752.14867,0.01694
750.22008,0.01598
748.29149,0.01502
746.36291,0.01485
744.43432,0.01389
742.50573,0.01194
740.57715,0.00960
738.64856,0.00814
736.71998,0.00743
734.79139,0.00622
732.86280,0.00527
730.93422,0.00518
729.00563,0.00584
727.07704,0.00666
725.14846,0.00733
723.21987,0.00780
721.29129,0.00800
719.36270,0.00788
717.43411,0.00686
715.50553,0.00555
713.57694,0.00501
711.64835,0.00509
709.71977,0.00549
707.79118,0.00656
705.86259,0.00776
703.93401,0.00914
702.00542,0.01161
700.07684,0.01480
698.14825,0.01826
696.21966,0.02039
694.29108,0.01995
692.36249,0.01795
690.43390,0.01584
688.50532,0.01414
686.57673,0.01203
684.64814,0.01044
682.71956,0.00976
680.79097,0.00968
678.86239,0.01011
676.93380,0.00976
675.00521,0.00949
673.07663,0.00968
671.14804,0.00970
669.21945,0.00896
667.29087,0.00817
665.36228,0.00881
663.43370,0.00873
661.50511,0.00852
659.57652,0.00904
657.64794,0.00954
655.71935,0.01050
653.79076,0.01114
651.86218,0.01222
649.93359,0.01293
648.00500,0.01239
646.07642,0.01269
644.14783,0.01412
642.21925,0.01580
640.29066,0.01609
638.36207,0.01580
636.43349,0.01641
634.50490,0.01699
632.57631,0.01844
630.64773,0.02014
628.71914,0.02013
626.79056,0.01918
624.86197,0.01922
622.93338,0.02037
621.00480,0.02156
619.07621,0.02234
617.14762,0.02303
615.21904,0.02525
613.29045,0.02762
611.36186,0.02823
609.43328,0.02796
607.50469,0.02821
605.57611,0.03030
603.64752,0.03139
601.71893,0.03134
599.79035,0.03252
597.86176,0.03403
595.93317,0.03677
594.00459,0.03934
592.07600,0.04064
590.14742,0.04264
588.21883,0.04546
586.29024,0.04850
584.36166,0.05167
582.43307,0.05540
580.50448,0.05829
578.57590,0.06080
576.64731,0.06320
574.71872,0.06563
572.79014,0.06908
570.86155,0.07089
568.93297,0.07485
567.00438,0.08117
565.07579,0.08530
563.14721,0.08936
561.21862,0.09171
559.29003,0.09386
557.36145,0.09816
555.43286,0.10264
553.50427,0.10572
551.57569,0.10638
549.64710,0.10906
547.71852,0.11408
545.78993,0.11846
543.86134,0.12079
541.93276,0.12329
540.00417,0.13046
538.07558,0.13630
536.14700,0.13862
534.21841,0.14094
532.28983,0.14243
530.36124,0.14354
528.43265,0.14313
526.50407,0.14095
524.57548,0.13888
522.64689,0.13866
520.71831,0.13797
518.78972,0.13359
516.86113,0.12974
514.93255,0.12756
513.00396,0.12424
511.07538,0.12113
509.14679,0.11870
507.21820,0.11657
505.28962,0.11656
503.36103,0.11840
501.43244,0.12124
499.50386,0.12575
497.57527,0.13196
495.64669,0.13903
493.71810,0.14525
491.78951,0.15302
489.86093,0.16327
487.93234,0.17483
486.00375,0.18871
484.07517,0.19966
482.14658,0.20939
480.21799,0.22145
478.28941,0.22920
476.36082,0.23325
474.43224,0.23723
472.50365,0.23804
470.57506,0.23527
468.64648,0.23349
466.71789,0.23052
464.78930,0.22311
462.86072,0.21395
460.93213,0.20515
459.00355,0.19282
457.07496,0.17737
455.14637,0.16635
453.21779,0.15701
451.28920,0.14620
449.36061,0.13581
447.43203,0.13113
445.50344,0.13054
443.57485,0.12408
441.64627,0.11633
439.71768,0.11198
437.78910,0.10716
435.86051,0.10063
433.93192,0.09368
432.00334,0.08950
430.07475,0.08428
428.14616,0.07893
426.21758,0.08433
424.28899,0.08353
422.36040,0.06722
420.43182,0.06144
418.50323,0.06491
416.57465,0.06095
414.64606,0.04801
412.71747,0.04601
410.78889,0.05381
408.86030,0.03684
406.93171,0.01727
405.00313,0.01345
403.07454,0.01001
401.14596,0.00481
399.21737,0.00000
