3747.24323,0.00036
3745.31464,0.00184
3743.38605,0.00000
3741.45747,0.00009
3739.52888,0.00219
3737.60030,0.00308
3735.67171,0.00303
3733.74312,0.00276
3731.81454,0.00296
3729.88595,0.00339
3727.95736,0.00460
3726.02878,0.00531
3724.10019,0.00577
3722.17161,0.00704
3720.24302,0.00804
3718.31443,0.00973
3716.38585,0.01154
3714.45726,0.01404
3712.52867,0.01650
3710.60009,0.01790
3708.67150,0.02049
3706.74291,0.02314
3704.81433,0.02661
3702.88574,0.02986
3700.95716,0.03164
3699.02857,0.03374
3697.09998,0.03518
3695.17140,0.03624
3693.24281,0.03695
3691.31422,0.03815
3689.38564,0.03916
3687.45705,0.03923
3685.52846,0.04113
3683.59988,0.04398
3681.67129,0.04689
3679.74271,0.04982
3677.81412,0.05373
3675.88553,0.05704
3673.95695,0.05929
3672.02836,0.06404
3670.09977,0.06781
3668.17119,0.07035
3666.24260,0.07444
3664.31402,0.07836
3662.38543,0.08216
3660.45684,0.08577
3658.52826,0.08983
3656.59967,0.09320
3654.67108,0.09538
3652.74250,0.09893
3650.81391,0.10227
3648.88532,0.10407
3646.95674,0.10586
3645.02815,0.10862
3643.09957,0.11156
3641.17098,0.11390
3639.24239,0.11629
3637.31381,0.11895
3635.38522,0.12171
3633.45663,0.12407
3631.52805,0.12700
3629.59946,0.12928
3627.67088,0.12939
3625.74229,0.13082
3623.81370,0.13275
3621.88512,0.13385
3619.95653,0.13413
3618.02794,0.13295
3616.09936,0.13237
3614.17077,0.13210
3612.24218,0.13144
3610.31360,0.13114
3608.38501,0.13058
3606.45643,0.12987
3604.52784,0.12974
3602.59925,0.12983
3600.67067,0.12964
3598.74208,0.12953
3596.81349,0.12966
3594.88491,0.12967
3592.95632,0.12951
3591.02774,0.12996
3589.09915,0.13084
3587.17056,0.13081
3585.24198,0.13083
3583.31339,0.13172
3581.38480,0.13263
3579.45622,0.13338
3577.52763,0.13418
3575.59904,0.13512
3573.67046,0.13593
3571.74187,0.13676
3569.81329,0.13814
3567.88470,0.13934
3565.95611,0.13995
3564.02753,0.14090
3562.09894,0.14228
3560.17035,0.14345
3558.24177,0.14450
3556.31318,0.14565
3554.38459,0.14683
3552.45601,0.14784
3550.52742,0.14896
3548.59884,0.15051
3546.67025,0.15168
3544.74166,0.15241
3542.81308,0.15336
3540.88449,0.15449
3538.95590,0.15572
3537.02732,0.15701
3535.09873,0.15822
3533.17015,0.15927
3531.24156,0.16034
3529.31297,0.16143
3527.38439,0.16248
3525.45580,0.16357
3523.52721,0.16457
3521.59863,0.16549
3519.67004,0.16641
3517.74145,0.16756
3515.81287,0.16879
3513.88428,0.16988
3511.95570,0.17115
3510.02711,0.17227
3508.09852,0.17302
3506.16994,0.17394
3504.24135,0.17508
3502.31276,0.17621
3500.38418,0.17729
3498.45559,0.17820
3496.52701,0.17911
3494.59842,0.18016
3492.66983,0.18100
3490.74125,0.18176
3488.81266,0.18253
3486.88407,0.18327
3484.95549,0.18429
3483.02690,0.18553
3481.09831,0.18658
3479.16973,0.18729
3477.24114,0.18804
3475.31256,0.18892
3473.38397,0.18972
3471.45538,0.19053
3469.52680,0.19132
3467.59821,0.19194
3465.66962,0.19256
3463.74104,0.19338
3461.81245,0.19397
3459.88386,0.19453
3457.95528,0.19536
3456.02669,0.19608
3454.09811,0.19685
3452.16952,0.19755
3450.24093,0.19817
3448.31235,0.19895
3446.38376,0.19961
3444.45517,0.20032
3442.52659,0.20095
3440.59800,0.20145
3438.66942,0.20218
3436.74083,0.20276
3434.81224,0.20321
3432.88366,0.20386
3430.95507,0.20441
3429.02648,0.20483
3427.09790,0.20525
3425.16931,0.20571
3423.24072,0.20614
3421.31214,0.20659
3419.38355,0.20730
3417.45497,0.20801
3415.52638,0.20847
3413.59779,0.20862
3411.66921,0.20887
3409.74062,0.20943
3407.81203,0.20977
3405.88345,0.21004
3403.95486,0.21037
3402.02628,0.21064
3400.09769,0.21096
3398.16910,0.21119
3396.24052,0.21146
3394.31193,0.21173
3392.38334,0.21170
3390.45476,0.21180
3388.52617,0.21236
3386.59758,0.21264
3384.66900,0.21255
3382.74041,0.21274
3380.81183,0.21314
3378.88324,0.21352
3376.95465,0.21373
3375.02607,0.21368
3373.09748,0.21368
3371.16889,0.21398
3369.24031,0.21432
3367.31172,0.21458
3365.38314,0.21475
3363.45455,0.21471
3361.52596,0.21485
3359.59738,0.21508
3357.66879,0.21506
3355.74020,0.21505
3353.81162,0.21509
3351.88303,0.21514
3349.95444,0.21532
3348.02586,0.21545
3346.09727,0.21546
3344.16869,0.21547
3342.24010,0.21547
3340.31151,0.21552
3338.38293,0.21558
3336.45434,0.21551
3334.52575,0.21539
3332.59717,0.21522
3330.66858,0.21519
3328.73999,0.21517
3326.81141,0.21492
3324.88282,0.21477
3322.95424,0.21475
3321.02565,0.21481
3319.09706,0.21487
3317.16848,0.21473
3315.23989,0.21457
3313.31130,0.21436
3311.38272,0.21433
3309.45413,0.21441
3307.52555,0.21424
3305.59696,0.21403
3303.66837,0.21381
3301.73979,0.21358
3299.81120,0.21331
3297.88261,0.21289
3295.95403,0.21265
3294.02544,0.21249
3292.09685,0.21218
3290.16827,0.21176
3288.23968,0.21141
3286.31110,0.21117
3284.38251,0.21070
3282.45392,0.21012
3280.52534,0.20973
3278.59675,0.20938
3276.66816,0.20889
3274.73958,0.20812
3272.81099,0.20732
3270.88241,0.20670
3268.95382,0.20601
3267.02523,0.20523
3265.09665,0.20447
3263.16806,0.20356
3261.23947,0.20261
3259.31089,0.20176
3257.38230,0.20099
3255.45371,0.20027
3253.52513,0.19938
3251.59654,0.19841
3249.66796,0.19741
3247.73937,0.19652
3245.81078,0.19595
3243.88220,0.19525
3241.95361,0.19446
3240.02502,0.19370
3238.09644,0.19287
3236.16785,0.19195
3234.23927,0.19099
3232.31068,0.19025
3230.38209,0.18972
3228.45351,0.18908
3226.52492,0.18830
3224.59633,0.18749
3222.66775,0.18672
3220.73916,0.18604
3218.81057,0.18530
3216.88199,0.18443
3214.95340,0.18367
3213.02482,0.18302
3211.09623,0.18233
3209.16764,0.18143
3207.23906,0.18056
3205.31047,0.17986
3203.38188,0.17901
3201.45330,0.17829
3199.52471,0.17764
3197.59612,0.17673
3195.66754,0.17568
3193.73895,0.17473
3191.81037,0.17416
3189.88178,0.17364
3187.95319,0.17275
3186.02461,0.17167
3184.09602,0.17071
3182.16743,0.16991
3180.23885,0.16911
3178.31026,0.16833
3176.38168,0.16761
3174.45309,0.16683
3172.52450,0.16588
3170.59592,0.16484
3168.66733,0.16380
3166.73874,0.16291
3164.81016,0.16215
3162.88157,0.16122
3160.95298,0.16029
3159.02440,0.15955
3157.09581,0.15891
3155.16723,0.15829
3153.23864,0.15753
3151.31005,0.15663
3149.38147,0.15566
3147.45288,0.15487
3145.52429,0.15423
3143.59571,0.15354
3141.66712,0.15293
3139.73854,0.15231
3137.80995,0.15152
3135.88136,0.15070
3133.95278,0.15007
3132.02419,0.14957
3130.09560,0.14899
3128.16702,0.14838
3126.23843,0.14784
3124.30984,0.14732
3122.38126,0.14680
3120.45267,0.14629
3118.52409,0.14577
3116.59550,0.14530
3114.66691,0.14482
3112.73833,0.14429
3110.80974,0.14377
3108.88115,0.14327
3106.95257,0.14284
3105.02398,0.14241
3103.09540,0.14186
3101.16681,0.14133
3099.23822,0.14097
3097.30964,0.14063
3095.38105,0.14010
3093.45246,0.13962
3091.52388,0.13921
3089.59529,0.13862
3087.66670,0.13804
3085.73812,0.13759
3083.80953,0.13711
3081.88095,0.13657
3079.95236,0.13597
3078.02377,0.13552
3076.09519,0.13509
3074.16660,0.13457
3072.23801,0.13415
3070.30943,0.13364
3068.38084,0.13297
3066.45225,0.13231
3064.52367,0.13163
3062.59508,0.13093
3060.66650,0.13029
3058.73791,0.12960
3056.80932,0.12882
3054.88074,0.12810
3052.95215,0.12749
3051.02356,0.12689
3049.09498,0.12617
3047.16639,0.12542
3045.23781,0.12476
3043.30922,0.12421
3041.38063,0.12364
3039.45205,0.12311
3037.52346,0.12272
3035.59487,0.12220
3033.66629,0.12165
3031.73770,0.12120
3029.80911,0.12059
3027.88053,0.12012
3025.95194,0.11977
3024.02336,0.11937
3022.09477,0.11904
3020.16618,0.11871
3018.23760,0.11841
3016.30901,0.11823
3014.38042,0.11817
3012.45184,0.11815
3010.52325,0.11819
3008.59467,0.11835
3006.66608,0.11851
3004.73749,0.11871
3002.80891,0.11911
3000.88032,0.11962
2998.95173,0.12005
2997.02315,0.12060
2995.09456,0.12135
2993.16597,0.12226
2991.23739,0.12333
2989.30880,0.12424
2987.38022,0.12528
2985.45163,0.12677
2983.52304,0.12844
2981.59446,0.13020
2979.66587,0.13209
2977.73728,0.13409
2975.80870,0.13611
2973.88011,0.13820
2971.95153,0.14044
2970.02294,0.14281
2968.09435,0.14537
2966.16577,0.14791
2964.23718,0.15029
2962.30859,0.15259
2960.38001,0.15488
2958.45142,0.15703
2956.52283,0.15886
2954.59425,0.16047
2952.66566,0.16204
2950.73708,0.16387
2948.80849,0.16614
2946.87990,0.16892
2944.95132,0.17234
2943.02273,0.17633
2941.09414,0.18069
2939.16556,0.18545
2937.23697,0.19065
2935.30838,0.19592
2933.37980,0.20089
2931.45121,0.20557
2929.52263,0.20997
2927.59404,0.21389
2925.66545,0.21684
2923.73687,0.21845
2921.80828,0.21854
2919.87969,0.21683
2917.95111,0.21261
2916.02252,0.20530
2914.09394,0.19590
2912.16535,0.18668
2910.23676,0.17917
2908.30818,0.17337
2906.37959,0.16877
2904.45100,0.16488
2902.52242,0.16147
2900.59383,0.15831
2898.66524,0.15525
2896.73666,0.15250
2894.80807,0.14987
2892.87949,0.14719
2890.95090,0.14452
2889.02231,0.14206
2887.09373,0.13995
2885.16514,0.13797
2883.23655,0.13630
2881.30797,0.13511
2879.37938,0.13427
2877.45080,0.13376
2875.52221,0.13362
2873.59362,0.13385
2871.66504,0.13413
2869.73645,0.13438
2867.80786,0.13491
2865.87928,0.13613
2863.95069,0.13843
2862.02210,0.14190
2860.09352,0.14663
2858.16493,0.15233
2856.23635,0.15825
2854.30776,0.16319
2852.37917,0.16539
2850.45059,0.16316
2848.52200,0.15550
2846.59341,0.14405
2844.66483,0.13248
2842.73624,0.12266
2840.80766,0.11469
2838.87907,0.10833
2836.95048,0.10322
2835.02190,0.09911
2833.09331,0.09575
2831.16472,0.09292
2829.23614,0.09044
2827.30755,0.08823
2825.37896,0.08627
2823.45038,0.08456
2821.52179,0.08300
2819.59321,0.08160
2817.66462,0.08032
2815.73603,0.07908
2813.80745,0.07794
2811.87886,0.07693
2809.95027,0.07590
2808.02169,0.07495
2806.09310,0.07395
2804.16451,0.07292
2802.23593,0.07213
2800.30734,0.07134
2798.37876,0.07052
2796.45017,0.06989
2794.52158,0.06929
2792.59300,0.06858
2790.66441,0.06784
2788.73582,0.06719
2786.80724,0.06655
2784.87865,0.06592
2782.95007,0.06529
2781.02148,0.06463
2779.09289,0.06405
2777.16431,0.06355
2775.23572,0.06315
2773.30713,0.06270
2771.37855,0.06218
2769.44996,0.06166
2767.52137,0.06116
2765.59279,0.06067
2763.66420,0.06026
2761.73562,0.05996
2759.80703,0.05954
2757.87844,0.05912
2755.94986,0.05880
2754.02127,0.05840
2752.09268,0.05807
2750.16410,0.05779
2748.23551,0.05744
2746.30693,0.05717
2744.37834,0.05697
2742.44975,0.05664
2740.52117,0.05632
2738.59258,0.05601
2736.66399,0.05560
2734.73541,0.05524
2732.80682,0.05487
2730.87823,0.05446
2728.94965,0.05407
2727.02106,0.05373
2725.09248,0.05341
2723.16389,0.05295
2721.23530,0.05250
2719.30672,0.05216
2717.37813,0.05181
2715.44954,0.05140
2713.52096,0.05096
2711.59237,0.05057
2709.66379,0.05014
2707.73520,0.04980
2705.80661,0.04950
2703.87803,0.04916
2701.94944,0.04883
2700.02085,0.04843
2698.09227,0.04806
2696.16368,0.04779
2694.23509,0.04752
2692.30651,0.04716
2690.37792,0.04689
2688.44934,0.04672
2686.52075,0.04640
2684.59216,0.04605
2682.66358,0.04572
2680.73499,0.04540
2678.80640,0.04518
2676.87782,0.04495
2674.94923,0.04463
2673.02064,0.04428
2671.09206,0.04397
2669.16347,0.04365
2667.23489,0.04333
2665.30630,0.04311
2663.37771,0.04284
2661.44913,0.04251
2659.52054,0.04218
2657.59195,0.04194
2655.66337,0.04171
2653.73478,0.04136
2651.80620,0.04101
2649.87761,0.04076
2647.94902,0.04060
2646.02044,0.04038
2644.09185,0.04011
2642.16326,0.03983
2640.23468,0.03949
2638.30609,0.03918
2636.37750,0.03891
2634.44892,0.03863
2632.52033,0.03840
2630.59175,0.03823
2628.66316,0.03801
2626.73457,0.03771
2624.80599,0.03737
2622.87740,0.03703
2620.94881,0.03670
2619.02023,0.03641
2617.09164,0.03618
2615.16306,0.03587
2613.23447,0.03548
2611.30588,0.03521
2609.37730,0.03497
2607.44871,0.03467
2605.52012,0.03438
2603.59154,0.03412
2601.66295,0.03383
2599.73436,0.03352
2597.80578,0.03326
2595.87719,0.03298
2593.94861,0.03268
2592.02002,0.03235
2590.09143,0.03211
2588.16285,0.03194
2586.23426,0.03165
2584.30567,0.03132
2582.37709,0.03102
2580.44850,0.03077
2578.51991,0.03058
2576.59133,0.03030
2574.66274,0.02997
2572.73416,0.02968
2570.80557,0.02939
2568.87698,0.02917
2566.94840,0.02908
2565.01981,0.02888
2563.09122,0.02854
2561.16264,0.02827
2559.23405,0.02810
2557.30547,0.02791
2555.37688,0.02769
2553.44829,0.02745
2551.51971,0.02720
2549.59112,0.02693
2547.66253,0.02674
2545.73395,0.02665
2543.80536,0.02649
2541.87677,0.02630
2539.94819,0.02605
2538.01960,0.02578
2536.09102,0.02565
2534.16243,0.02550
2532.23384,0.02528
2530.30526,0.02506
2528.37667,0.02483
2526.44808,0.02459
2524.51950,0.02436
2522.59091,0.02416
2520.66233,0.02395
2518.73374,0.02371
2516.80515,0.02350
2514.87657,0.02326
2512.94798,0.02292
2511.01939,0.02261
2509.09081,0.02243
2507.16222,0.02229
2505.23363,0.02208
2503.30505,0.02181
2501.37646,0.02152
2499.44788,0.02127
2497.51929,0.02098
2495.59070,0.02073
2493.66212,0.02054
2491.73353,0.02029
2489.80494,0.01999
2487.87636,0.01974
2485.94777,0.01958
2484.01919,0.01938
2482.09060,0.01912
2480.16201,0.01884
2478.23343,0.01849
2476.30484,0.01818
2474.37625,0.01798
2472.44767,0.01776
2470.51908,0.01750
2468.59049,0.01725
2466.66191,0.01699
2464.73332,0.01672
2462.80474,0.01647
2460.87615,0.01622
2458.94756,0.01599
2457.01898,0.01577
2455.09039,0.01554
2453.16180,0.01531
2451.23322,0.01503
2449.30463,0.01474
2447.37604,0.01451
2445.44746,0.01437
2443.51887,0.01417
2441.59029,0.01379
2439.66170,0.01351
2437.73311,0.01336
2435.80453,0.01311
2433.87594,0.01285
2431.94735,0.01262
2430.01877,0.01238
2428.09018,0.01214
2426.16160,0.01194
2424.23301,0.01173
2422.30442,0.01146
2420.37584,0.01119
2418.44725,0.01096
2416.51866,0.01068
2414.59008,0.01038
2412.66149,0.01023
2410.73290,0.01008
2408.80432,0.00984
2406.87573,0.00959
2404.94715,0.00936
2403.01856,0.00925
2401.08997,0.00910
2399.16139,0.00886
2397.23280,0.00860
2395.30421,0.00838
2393.37563,0.00826
2391.44704,0.00801
2389.51846,0.00773
2387.58987,0.00756
2385.66128,0.00737
2383.73270,0.00717
2381.80411,0.00700
2379.87552,0.00696
2377.94694,0.00695
2376.01835,0.00678
2374.08976,0.00653
2372.16118,0.00629
2370.23259,0.00612
2368.30401,0.00598
2366.37542,0.00580
2364.44683,0.00559
2362.51825,0.00539
2360.58966,0.00519
2358.66107,0.00496
2356.73249,0.00468
2354.80390,0.00441
2352.87532,0.00422
2350.94673,0.00413
2349.01814,0.00430
2347.08956,0.00453
2345.16097,0.00453
2343.23238,0.00445
2341.30380,0.00439
2339.37521,0.00430
2337.44662,0.00413
2335.51804,0.00382
2333.58945,0.00360
2331.66087,0.00357
2329.73228,0.00345
2327.80369,0.00330
2325.87511,0.00321
2323.94652,0.00308
2322.01793,0.00287
2320.08935,0.00269
2318.16076,0.00265
2316.23217,0.00265
2314.30359,0.00251
2312.37500,0.00235
2310.44642,0.00227
2308.51783,0.00222
2306.58924,0.00212
2304.66066,0.00203
2302.73207,0.00200
2300.80348,0.00188
2298.87490,0.00175
2296.94631,0.00176
2295.01773,0.00177
2293.08914,0.00168
2291.16055,0.00163
2289.23197,0.00162
2287.30338,0.00151
2285.37479,0.00139
2283.44621,0.00134
2281.51762,0.00131
2279.58903,0.00127
2277.66045,0.00121
2275.73186,0.00111
2273.80328,0.00102
2271.87469,0.00099
2269.94610,0.00094
2268.01752,0.00087
2266.08893,0.00084
2264.16034,0.00077
2262.23176,0.00070
2260.30317,0.00070
2258.37459,0.00069
2256.44600,0.00060
2254.51741,0.00056
2252.58883,0.00056
2250.66024,0.00051
2248.73165,0.00052
2246.80307,0.00052
2244.87448,0.00045
2242.94589,0.00043
2241.01731,0.00048
2239.08872,0.00043
2237.16014,0.00036
2235.23155,0.00040
2233.30296,0.00032
2231.37438,0.00019
2229.44579,0.00015
2227.51720,0.00015
2225.58862,0.00019
2223.66003,0.00014
2221.73145,0.00012
2219.80286,0.00014
2217.87427,0.00006
2215.94569,0.00002
2214.01710,0.00002
2212.08851,-0.00006
2210.15993,-0.00008
2208.23134,-0.00005
2206.30275,-0.00006
2204.37417,-0.00002
2202.44558,0.00002
2200.51700,0.00002
2198.58841,-0.00002
2196.65982,-0.00010
2194.73124,-0.00014
2192.80265,-0.00010
2190.87406,-0.00000
2188.94548,-0.00000
2187.01689,0.00000
2185.08830,0.00012
2183.15972,0.00020
2181.23113,0.00017
2179.30255,0.00014
2177.37396,0.00013
2175.44537,0.00015
2173.51679,0.00020
2171.58820,0.00016
2169.65961,0.00000
2167.73103,0.00006
2165.80244,0.00026
2163.87386,0.00025
2161.94527,0.00016
2160.01668,0.00011
2158.08810,0.00021
2156.15951,0.00035
2154.23092,0.00036
2152.30234,0.00034
2150.37375,0.00027
2148.44516,0.00023
2146.51658,0.00027
2144.58799,0.00027
2142.65941,0.00025
2140.73082,0.00026
2138.80223,0.00025
2136.87365,0.00026
2134.94506,0.00024
2133.01647,0.00018
2131.08789,0.00008
2129.15930,0.00000
2127.23072,0.00005
2125.30213,0.00009
2123.37354,0.00003
2121.44496,-0.00004
2119.51637,-0.00006
2117.58778,-0.00004
2115.65920,-0.00006
2113.73061,-0.00007
2111.80202,-0.00009
2109.87344,-0.00011
2107.94485,-0.00008
2106.01627,-0.00011
2104.08768,-0.00014
2102.15909,-0.00010
2100.23051,-0.00007
2098.30192,-0.00006
2096.37333,-0.00010
2094.44475,-0.00016
2092.51616,-0.00018
2090.58758,-0.00020
2088.65899,-0.00021
2086.73040,-0.00012
2084.80182,-0.00006
2082.87323,-0.00006
2080.94464,0.00000
2079.01606,0.00004
2077.08747,0.00002
2075.15888,-0.00007
2073.23030,-0.00014
2071.30171,-0.00011
2069.37313,-0.00006
2067.44454,0.00006
2065.51595,0.00014
2063.58737,0.00012
2061.65878,0.00014
2059.73019,0.00019
2057.80161,0.00018
2055.87302,0.00016
2053.94443,0.00019
2052.01585,0.00031
2050.08726,0.00043
2048.15868,0.00053
2046.23009,0.00066
2044.30150,0.00080
2042.37292,0.00090
2040.44433,0.00099
2038.51574,0.00116
2036.58716,0.00134
2034.65857,0.00149
2032.72999,0.00159
2030.80140,0.00172
2028.87281,0.00192
2026.94423,0.00207
2025.01564,0.00215
2023.08705,0.00213
2021.15847,0.00209
2019.22988,0.00220
2017.30129,0.00236
2015.37271,0.00243
2013.44412,0.00253
2011.51554,0.00262
2009.58695,0.00266
2007.65836,0.00278
2005.72978,0.00292
2003.80119,0.00297
2001.87260,0.00296
1999.94402,0.00303
1998.01543,0.00309
1996.08685,0.00312
1994.15826,0.00316
1992.22967,0.00303
1990.30109,0.00283
1988.37250,0.00275
1986.44391,0.00274
1984.51533,0.00272
1982.58674,0.00265
1980.65815,0.00258
1978.72957,0.00251
1976.80098,0.00239
1974.87240,0.00228
1972.94381,0.00225
1971.01522,0.00220
1969.08664,0.00203
1967.15805,0.00183
1965.22946,0.00166
1963.30088,0.00149
1961.37229,0.00127
1959.44371,0.00114
1957.51512,0.00106
1955.58653,0.00103
1953.65795,0.00102
1951.72936,0.00094
1949.80077,0.00083
1947.87219,0.00066
1945.94360,0.00058
1944.01501,0.00063
1942.08643,0.00050
1940.15784,0.00027
1938.22926,0.00021
1936.30067,0.00023
1934.37208,0.00014
1932.44350,0.00000
1930.51491,-0.00004
1928.58632,-0.00007
1926.65774,-0.00007
1924.72915,0.00000
1922.80056,-0.00011
1920.87198,-0.00005
1918.94339,0.00020
1917.01481,0.00015
1915.08622,0.00020
1913.15763,0.00057
1911.22905,0.00094
1909.30046,0.00127
1907.37187,0.00156
1905.44329,0.00198
1903.51470,0.00245
1901.58612,0.00287
1899.65753,0.00328
1897.72894,0.00370
1895.80036,0.00414
1893.87177,0.00447
1891.94318,0.00491
1890.01460,0.00530
1888.08601,0.00542
1886.15742,0.00567
1884.22884,0.00593
1882.30025,0.00608
1880.37167,0.00618
1878.44308,0.00622
1876.51449,0.00631
1874.58591,0.00637
1872.65732,0.00651
1870.72873,0.00665
1868.80015,0.00645
1866.87156,0.00604
1864.94298,0.00576
1863.01439,0.00537
1861.08580,0.00488
1859.15722,0.00445
1857.22863,0.00394
1855.30004,0.00340
1853.37146,0.00270
1851.44287,0.00220
1849.51428,0.00178
1847.58570,0.00140
1845.65711,0.00130
1843.72853,0.00052
1841.79994,0.00000
1839.87135,0.00003
1837.94277,-0.00019
1836.01418,-0.00043
1834.08559,-0.00054
1832.15701,-0.00030
1830.22842,-0.00035
1828.29984,-0.00057
1826.37125,-0.00026
1824.44266,-0.00021
1822.51408,-0.00009
1820.58549,0.00033
1818.65690,0.00077
1816.72832,0.00125
1814.79973,0.00182
1812.87114,0.00261
1810.94256,0.00334
1809.01397,0.00414
1807.08539,0.00513
1805.15680,0.00623
1803.22821,0.00747
1801.29963,0.00879
1799.37104,0.01017
1797.44245,0.01164
1795.51387,0.01354
1793.58528,0.01557
1791.65669,0.01708
1789.72811,0.01869
1787.79952,0.02095
1785.87094,0.02316
1783.94235,0.02520
1782.01376,0.02733
1780.08518,0.02941
1778.15659,0.03147
1776.22800,0.03370
1774.29942,0.03617
1772.37083,0.03784
1770.44225,0.03923
1768.51366,0.04140
1766.58507,0.04324
1764.65649,0.04542
1762.72790,0.04778
1760.79931,0.04966
1758.87073,0.05218
1756.94214,0.05475
1755.01355,0.05743
1753.08497,0.06088
1751.15638,0.06419
1749.22780,0.06748
1747.29921,0.07144
1745.37062,0.07572
1743.44204,0.08011
1741.51345,0.08470
1739.58486,0.08896
1737.65628,0.09310
1735.72769,0.09740
1733.79911,0.10020
1731.87052,0.10242
1729.94193,0.10571
1728.01335,0.10849
1726.08476,0.11117
1724.15617,0.11394
1722.22759,0.11669
1720.29900,0.12017
1718.37041,0.12307
1716.44183,0.12499
1714.51324,0.12708
1712.58466,0.12957
1710.65607,0.13186
1708.72748,0.13391
1706.79890,0.13604
1704.87031,0.13770
1702.94172,0.14032
1701.01314,0.14295
1699.08455,0.14433
1697.15596,0.14726
1695.22738,0.14956
1693.29879,0.15163
1691.37021,0.15516
1689.44162,0.15769
1687.51303,0.16081
1685.58445,0.16412
1683.65586,0.16574
1681.72727,0.16836
1679.79869,0.17151
1677.87010,0.17471
1675.94152,0.17761
1674.01293,0.17979
1672.08434,0.18253
1670.15576,0.18490
1668.22717,0.18637
1666.29858,0.18816
1664.37000,0.19032
1662.44141,0.19148
1660.51282,0.19228
1658.58424,0.19337
1656.65565,0.19450
1654.72707,0.19591
1652.79848,0.19440
1650.86989,0.19302
1648.94131,0.19442
1647.01272,0.19436
1645.08413,0.19327
1643.15555,0.19327
1641.22696,0.19349
1639.29838,0.19361
1637.36979,0.19410
1635.44120,0.19361
1633.51262,0.19258
1631.58403,0.19273
1629.65544,0.19221
1627.72686,0.19088
1625.79827,0.18933
1623.86968,0.18732
1621.94110,0.18474
1620.01251,0.18286
1618.08393,0.18150
1616.15534,0.17837
1614.22675,0.17579
1612.29817,0.17417
1610.36958,0.17222
1608.44099,0.17025
1606.51241,0.16829
1604.58382,0.16663
1602.65524,0.16471
1600.72665,0.16288
1598.79806,0.16124
1596.86948,0.15972
1594.94089,0.15806
1593.01230,0.15622
1591.08372,0.15449
1589.15513,0.15249
1587.22654,0.15059
1585.29796,0.14850
1583.36937,0.14651
1581.44079,0.14459
1579.51220,0.14298
1577.58361,0.14186
1575.65503,0.13941
1573.72644,0.13769
1571.79785,0.13759
1569.86927,0.13677
1567.94068,0.13572
1566.01209,0.13547
1564.08351,0.13534
1562.15492,0.13620
1560.22634,0.13711
1558.29775,0.13543
1556.36916,0.13501
1554.44058,0.13576
1552.51199,0.13580
1550.58340,0.13623
1548.65482,0.13626
1546.72623,0.13645
1544.79765,0.13633
1542.86906,0.13587
1540.94047,0.13554
1539.01189,0.13339
1537.08330,0.13242
1535.15471,0.13258
1533.22613,0.13143
1531.29754,0.12993
1529.36895,0.12909
1527.44037,0.12823
1525.51178,0.12697
1523.58320,0.12646
1521.65461,0.12574
1519.72602,0.12476
1517.79744,0.12460
1515.86885,0.12363
1513.94026,0.12200
1512.01168,0.11984
1510.08309,0.11753
1508.15451,0.11555
1506.22592,0.11133
1504.29733,0.10685
1502.36875,0.10412
1500.44016,0.10108
1498.51157,0.09777
1496.58299,0.09411
1494.65440,0.09051
1492.72581,0.08829
1490.79723,0.08623
1488.86864,0.08400
1486.94006,0.08240
1485.01147,0.08153
1483.08288,0.08152
1481.15430,0.08189
1479.22571,0.08298
1477.29712,0.08515
1475.36854,0.08832
1473.43995,0.09284
1471.51137,0.09802
1469.58278,0.10367
1467.65419,0.10896
1465.72561,0.11194
1463.79702,0.11305
1461.86843,0.11369
1459.93985,0.11499
1458.01126,0.11628
1456.08267,0.11580
1454.15409,0.11559
1452.22550,0.11587
1450.29692,0.11575
1448.36833,0.11544
1446.43974,0.11477
1444.51116,0.11447
1442.58257,0.11423
1440.65398,0.11408
1438.72540,0.11465
1436.79681,0.11451
1434.86822,0.11398
1432.93964,0.11434
1431.01105,0.11459
1429.08247,0.11442
1427.15388,0.11468
1425.22529,0.11508
1423.29671,0.11543
1421.36812,0.11623
1419.43953,0.11649
1417.51095,0.11602
1415.58236,0.11615
1413.65378,0.11635
1411.72519,0.11623
1409.79660,0.11609
1407.86802,0.11606
1405.93943,0.11595
1404.01084,0.11542
1402.08226,0.11504
1400.15367,0.11438
1398.22508,0.11321
1396.29650,0.11219
1394.36791,0.11093
1392.43933,0.10983
1390.51074,0.10953
1388.58215,0.10937
1386.65357,0.10868
1384.72498,0.10813
1382.79639,0.10845
1380.86781,0.10911
1378.93922,0.10946
1377.01064,0.10930
1375.08205,0.10866
1373.15346,0.10756
1371.22488,0.10636
1369.29629,0.10512
1367.36770,0.10357
1365.43912,0.10223
1363.51053,0.10093
1361.58194,0.09948
1359.65336,0.09819
1357.72477,0.09708
1355.79619,0.09607
1353.86760,0.09513
1351.93901,0.09444
1350.01043,0.09377
1348.08184,0.09306
1346.15325,0.09245
1344.22467,0.09189
1342.29608,0.09153
1340.36750,0.09117
1338.43891,0.09063
1336.51032,0.09011
1334.58174,0.08967
1332.65315,0.08921
1330.72456,0.08887
1328.79598,0.08871
1326.86739,0.08847
1324.93880,0.08820
1323.01022,0.08790
1321.08163,0.08746
1319.15305,0.08711
1317.22446,0.08683
1315.29587,0.08653
1313.36729,0.08632
1311.43870,0.08610
1309.51011,0.08574
1307.58153,0.08534
1305.65294,0.08505
1303.72435,0.08496
1301.79577,0.08498
1299.86718,0.08491
1297.93860,0.08510
1296.01001,0.08561
1294.08142,0.08608
1292.15284,0.08666
1290.22425,0.08757
1288.29566,0.08872
1286.36708,0.08999
1284.43849,0.09155
1282.50991,0.09330
1280.58132,0.09494
1278.65273,0.09653
1276.72415,0.09826
1274.79556,0.10032
1272.86697,0.10243
1270.93839,0.10456
1269.00980,0.10698
1267.08121,0.10962
1265.15263,0.11248
1263.22404,0.11552
1261.29546,0.11893
1259.36687,0.12303
1257.43828,0.12786
1255.50970,0.13339
1253.58111,0.13919
1251.65252,0.14521
1249.72394,0.15153
1247.79535,0.15769
1245.86677,0.16346
1243.93818,0.16885
1242.00959,0.17389
1240.08101,0.17854
1238.15242,0.18288
1236.22383,0.18692
1234.29525,0.19059
1232.36666,0.19385
1230.43807,0.19696
1228.50949,0.19991
1226.58090,0.20236
1224.65232,0.20461
1222.72373,0.20687
1220.79514,0.20913
1218.86656,0.21120
1216.93797,0.21301
1215.00938,0.21499
1213.08080,0.21698
1211.15221,0.21893
1209.22363,0.22096
1207.29504,0.22285
1205.36645,0.22437
1203.43787,0.22564
1201.50928,0.22713
1199.58069,0.22854
1197.65211,0.22983
1195.72352,0.23126
1193.79493,0.23263
1191.86635,0.23407
1189.93776,0.23559
1188.00918,0.23697
1186.08059,0.23826
1184.15200,0.23991
1182.22342,0.24195
1180.29483,0.24416
1178.36624,0.24658
1176.43766,0.24905
1174.50907,0.25149
1172.58048,0.25392
1170.65190,0.25655
1168.72331,0.25930
1166.79473,0.26193
1164.86614,0.26467
1162.93755,0.26711
1161.00897,0.26864
1159.08038,0.26974
1157.15179,0.27125
1155.22321,0.27285
1153.29462,0.27414
1151.36604,0.27557
1149.43745,0.27741
1147.50886,0.27944
1145.58028,0.28159
1143.65169,0.28416
1141.72310,0.28706
1139.79452,0.29006
1137.86593,0.29304
1135.93734,0.29627
1134.00876,0.30032
1132.08017,0.30462
1130.15159,0.30872
1128.22300,0.31316
1126.29441,0.31839
1124.36583,0.32370
1122.43724,0.32885
1120.50865,0.33476
1118.58007,0.34103
1116.65148,0.34735
1114.72290,0.35375
1112.79431,0.35988
1110.86572,0.36605
1108.93714,0.37234
1107.00855,0.37837
1105.07996,0.38310
1103.15138,0.38660
1101.22279,0.38935
1099.29420,0.39105
1097.36562,0.39181
1095.43703,0.39181
1093.50845,0.39152
1091.57986,0.39064
1089.65127,0.38902
1087.72269,0.38732
1085.79410,0.38553
1083.86551,0.38343
1081.93693,0.38065
1080.00834,0.37774
1078.07976,0.37535
1076.15117,0.37284
1074.22258,0.37013
1072.29400,0.36756
1070.36541,0.36511
1068.43682,0.36275
1066.50824,0.36020
1064.57965,0.35722
1062.65106,0.35396
1060.72248,0.35067
1058.79389,0.34731
1056.86531,0.34391
1054.93672,0.34054
1053.00813,0.33699
1051.07955,0.33367
1049.15096,0.33090
1047.22237,0.32861
1045.29379,0.32705
1043.36520,0.32597
1041.43661,0.32523
1039.50803,0.32484
1037.57944,0.32401
1035.65086,0.32263
1033.72227,0.32124
1031.79368,0.31940
1029.86510,0.31664
1027.93651,0.31303
1026.00792,0.30879
1024.07934,0.30448
1022.15075,0.30049
1020.22217,0.29669
1018.29358,0.29286
1016.36499,0.28891
1014.43641,0.28493
1012.50782,0.28120
1010.57923,0.27769
1008.65065,0.27376
1006.72206,0.26921
1004.79347,0.26427
1002.86489,0.25946
1000.93630,0.25483
999.00772,0.24967
997.07913,0.24422
995.15054,0.23872
993.22196,0.23336
991.29337,0.22812
989.36478,0.22239
987.43620,0.21635
985.50761,0.20988
983.57903,0.20317
981.65044,0.19639
979.72185,0.18896
977.79327,0.18139
975.86468,0.17382
973.93609,0.16610
972.00751,0.15847
970.07892,0.15108
968.15033,0.14421
966.22175,0.13779
964.29316,0.13199
962.36458,0.12678
960.43599,0.12213
958.50740,0.11810
956.57882,0.11423
954.65023,0.11086
952.72164,0.10814
950.79306,0.10566
948.86447,0.10349
946.93589,0.10167
945.00730,0.10014
943.07871,0.09869
941.15013,0.09725
939.22154,0.09594
937.29295,0.09477
935.36437,0.09361
933.43578,0.09224
931.50719,0.09101
929.57861,0.09010
927.65002,0.08909
925.72144,0.08802
923.79285,0.08710
921.86426,0.08636
919.93568,0.08587
918.00709,0.08547
916.07850,0.08473
914.14992,0.08375
912.22133,0.08229
910.29274,0.07951
908.36416,0.07588
906.43557,0.07185
904.50699,0.06724
902.57840,0.06251
900.64981,0.05801
898.72123,0.05368
896.79264,0.04923
894.86405,0.04512
892.93547,0.04182
891.00688,0.03883
889.07830,0.03579
887.14971,0.03268
885.22112,0.02986
883.29254,0.02742
881.36395,0.02493
879.43536,0.02248
877.50678,0.02003
875.57819,0.01744
873.64960,0.01484
871.72102,0.01218
869.79243,0.00976
867.86385,0.00770
865.93526,0.00577
864.00667,0.00412
862.07809,0.00256
860.14950,0.00121
858.22091,0.00044
856.29233,0.00000
854.36374,-0.00040
852.43516,-0.00068
850.50657,-0.00053
848.57798,0.00033
846.64940,0.00165
844.72081,0.00357
842.79222,0.00587
840.86364,0.00849
838.93505,0.01167
837.00646,0.01511
835.07788,0.01837
833.14929,0.02134
831.22071,0.02375
829.29212,0.02516
827.36353,0.02654
825.43495,0.02818
823.50636,0.02951
821.57777,0.03099
819.64919,0.03247
817.72060,0.03393
815.79201,0.03515
813.86343,0.03646
811.93484,0.03863
810.00626,0.04159
808.07767,0.04598
806.14908,0.05130
804.22050,0.05612
802.29191,0.05957
800.36332,0.06105
798.43474,0.06054
796.50615,0.05769
794.57757,0.05359
792.64898,0.04968
790.72039,0.04649
788.79181,0.04401
786.86322,0.04218
784.93463,0.04157
783.00605,0.04147
781.07746,0.04092
779.14887,0.03883
777.22029,0.03483
775.29170,0.02986
773.36312,0.02460
771.43453,0.02034
769.50594,0.01704
767.57736,0.01450
765.64877,0.01335
763.72018,0.01279
761.79160,0.01282
759.86301,0.01354
757.93443,0.01400
756.00584,0.01368
754.07725,0.01320
752.14867,0.01315
750.22008,0.01264
748.29149,0.01165
746.36291,0.01025
744.43432,0.00844
742.50573,0.00687
740.57715,0.00507
738.64856,0.00335
736.71998,0.00207
734.79139,0.00079
732.86280,0.00004
730.93422,-0.00005
729.00563,0.00012
727.07704,0.00052
725.14846,0.00088
723.21987,0.00110
721.29129,0.00144
719.36270,0.00127
717.43411,0.00017
715.50553,-0.00065
713.57694,-0.00068
711.64835,-0.00063
709.71977,-0.00057
707.79118,-0.00008
705.86259,0.00090
703.93401,0.00244
702.00542,0.00470
700.07684,0.00764
698.14825,0.01097
696.21966,0.01334
694.29108,0.01312
692.36249,0.01067
690.43390,0.00793
688.50532,0.00620
686.57673,0.00512
684.64814,0.00412
682.71956,0.00328
680.79097,0.00267
678.86239,0.00213
676.93380,0.00175
675.00521,0.00203
673.07663,0.00167
671.14804,0.00073
669.21945,0.00040
667.29087,-0.00057
665.36228,-0.00093
663.43370,-0.00055
661.50511,-0.00053
659.57652,0.00000
657.64794,-0.00010
655.71935,0.00009
653.79076,0.00116
651.86218,0.00136
649.93359,0.00201
648.00500,0.00337
646.07642,0.00383
644.14783,0.00355
642.21925,0.00369
640.29066,0.00438
638.36207,0.00465
636.43349,0.00453
634.50490,0.00549
632.57631,0.00735
630.64773,0.00785
628.71914,0.00738
626.79056,0.00762
624.86197,0.00885
622.93338,0.01017
621.00480,0.01005
619.07621,0.00992
617.14762,0.01157
615.21904,0.01343
613.29045,0.01458
611.36186,0.01571
609.43328,0.01664
607.50469,0.01751
605.57611,0.01871
603.64752,0.01961
601.71893,0.02022
599.79035,0.02167
597.86176,0.02405
595.93317,0.02630
594.00459,0.02826
592.07600,0.02992
590.14742,0.03232
588.21883,0.03542
586.29024,0.03790
584.36166,0.04205
582.43307,0.04665
580.50448,0.04885
578.57590,0.05047
576.64731,0.05332
574.71872,0.05834
572.79014,0.06256
570.86155,0.06507
568.93297,0.06907
567.00438,0.07331
565.07579,0.07662
563.14721,0.08129
561.21862,0.08629
559.29003,0.08922
557.36145,0.09261
555.43286,0.09687
553.50427,0.10017
551.57569,0.10303
549.64710,0.10615
547.71852,0.10930
545.78993,0.11118
543.86134,0.11388
541.93276,0.11735
540.00417,0.12084
538.07558,0.12633
536.14700,0.13111
534.21841,0.13434
532.28983,0.13679
530.36124,0.13610
528.43265,0.13283
526.50407,0.13181
524.57548,0.13298
522.64689,0.13217
520.71831,0.13065
518.78972,0.12841
516.86113,0.12432
514.93255,0.11989
513.00396,0.11621
511.07538,0.11380
509.14679,0.11087
507.21820,0.10855
505.28962,0.10974
503.36103,0.11322
501.43244,0.11645
499.50386,0.11995
497.57527,0.12606
495.64669,0.13334
493.71810,0.14161
491.78951,0.15065
489.86093,0.16041
487.93234,0.17378
486.00375,0.18489
484.07517,0.19290
482.14658,0.20468
480.21799,0.21572
478.28941,0.22501
476.36082,0.23370
474.43224,0.23828
472.50365,0.24031
470.57506,0.23720
468.64648,0.22955
466.71789,0.22256
464.78930,0.21332
462.86072,0.20221
460.93213,0.19335
459.00355,0.18223
457.07496,0.16811
455.14637,0.15673
453.21779,0.15014
451.28920,0.14441
449.36061,0.13693
447.43203,0.13145
445.50344,0.12322
443.57485,0.11317
441.64627,0.10740
439.71768,0.10391
437.78910,0.10190
435.86051,0.09947
433.93192,0.09636
432.00334,0.08993
430.07475,0.08419
428.14616,0.08094
426.21758,0.07780
424.28899,0.07910
422.36040,0.07417
420.43182,0.06756
418.50323,0.06227
416.57465,0.05186
414.64606,0.04381
412.71747,0.03451
410.78889,0.02842
408.86030,0.02321
406.93171,0.01464
405.00313,0.00385
403.07454,0.00000
401.14596,0.00412
399.21737,0.00000
