3747.24323,0.00000
3745.31464,0.00152
3743.38605,0.00019
3741.45747,0.00068
3739.52888,0.00330
3737.60030,0.00472
3735.67171,0.00478
3733.74312,0.00451
3731.81454,0.00516
3729.88595,0.00604
3727.95736,0.00757
3726.02878,0.00899
3724.10019,0.00998
3722.17161,0.01179
3720.24302,0.01328
3718.31443,0.01549
3716.38585,0.01830
3714.45726,0.02166
3712.52867,0.02489
3710.60009,0.02699
3708.67150,0.03035
3706.74291,0.03407
3704.81433,0.03865
3702.88574,0.04292
3700.95716,0.04528
3699.02857,0.04786
3697.09998,0.04962
3695.17140,0.05087
3693.24281,0.05179
3691.31422,0.05266
3689.38564,0.05349
3687.45705,0.05468
3685.52846,0.05778
3683.59988,0.06107
3681.67129,0.06477
3679.74271,0.06892
3677.81412,0.07344
3675.88553,0.07742
3673.95695,0.08146
3672.02836,0.08734
3670.09977,0.09199
3668.17119,0.09614
3666.24260,0.10171
3664.31402,0.10729
3662.38543,0.11263
3660.45684,0.11756
3658.52826,0.12235
3656.59967,0.12673
3654.67108,0.13040
3652.74250,0.13420
3650.81391,0.13758
3648.88532,0.14025
3646.95674,0.14303
3645.02815,0.14670
3643.09957,0.15058
3641.17098,0.15379
3639.24239,0.15654
3637.31381,0.15940
3635.38522,0.16260
3633.45663,0.16570
3631.52805,0.16906
3629.59946,0.17188
3627.67088,0.17273
3625.74229,0.17445
3623.81370,0.17659
3621.88512,0.17767
3619.95653,0.17757
3618.02794,0.17554
3616.09936,0.17396
3614.17077,0.17304
3612.24218,0.17183
3610.31360,0.17072
3608.38501,0.16948
3606.45643,0.16836
3604.52784,0.16775
3602.59925,0.16761
3600.67067,0.16703
3598.74208,0.16617
3596.81349,0.16571
3594.88491,0.16508
3592.95632,0.16450
3591.02774,0.16470
3589.09915,0.16508
3587.17056,0.16483
3585.24198,0.16477
3583.31339,0.16544
3581.38480,0.16599
3579.45622,0.16627
3577.52763,0.16686
3575.59904,0.16788
3573.67046,0.16883
3571.74187,0.16992
3569.81329,0.17122
3567.88470,0.17153
3565.95611,0.17151
3564.02753,0.17283
3562.09894,0.17460
3560.17035,0.17609
3558.24177,0.17722
3556.31318,0.17808
3554.38459,0.17923
3552.45601,0.18048
3550.52742,0.18167
3548.59884,0.18304
3546.67025,0.18400
3544.74166,0.18475
3542.81308,0.18580
3540.88449,0.18692
3538.95590,0.18832
3537.02732,0.18965
3535.09873,0.19072
3533.17015,0.19188
3531.24156,0.19334
3529.31297,0.19493
3527.38439,0.19578
3525.45580,0.19638
3523.52721,0.19751
3521.59863,0.19870
3519.67004,0.19982
3517.74145,0.20098
3515.81287,0.20213
3513.88428,0.20333
3511.95570,0.20456
3510.02711,0.20541
3508.09852,0.20615
3506.16994,0.20729
3504.24135,0.20851
3502.31276,0.20950
3500.38418,0.21047
3498.45559,0.21157
3496.52701,0.21272
3494.59842,0.21392
3492.66983,0.21494
3490.74125,0.21591
3488.81266,0.21695
3486.88407,0.21791
3484.95549,0.21900
3483.02690,0.21997
3481.09831,0.22076
3479.16973,0.22179
3477.24114,0.22278
3475.31256,0.22344
3473.38397,0.22396
3471.45538,0.22472
3469.52680,0.22560
3467.59821,0.22639
3465.66962,0.22717
3463.74104,0.22787
3461.81245,0.22861
3459.88386,0.22932
3457.95528,0.23005
3456.02669,0.23101
3454.09811,0.23160
3452.16952,0.23211
3450.24093,0.23293
3448.31235,0.23338
3446.38376,0.23382
3444.45517,0.23437
3442.52659,0.23489
3440.59800,0.23582
3438.66942,0.23674
3436.74083,0.23730
3434.81224,0.23782
3432.88366,0.23852
3430.95507,0.23906
3429.02648,0.23917
3427.09790,0.23946
3425.16931,0.24012
3423.24072,0.24062
3421.31214,0.24095
3419.38355,0.24139
3417.45497,0.24200
3415.52638,0.24268
3413.59779,0.24294
3411.66921,0.24298
3409.74062,0.24327
3407.81203,0.24346
3405.88345,0.24373
3403.95486,0.24421
3402.02628,0.24464
3400.09769,0.24527
3398.16910,0.24577
3396.24052,0.24569
3394.31193,0.24562
3392.38334,0.24596
3390.45476,0.24647
3388.52617,0.24682
3386.59758,0.24679
3384.66900,0.24684
3382.74041,0.24719
3380.81183,0.24727
3378.88324,0.24731
3376.95465,0.24779
3375.02607,0.24828
3373.09748,0.24849
3371.16889,0.24884
3369.24031,0.24927
3367.31172,0.24947
3365.38314,0.24957
3363.45455,0.24951
3361.52596,0.24937
3359.59738,0.24948
3357.66879,0.24999
3355.74020,0.25064
3353.81162,0.25109
3351.88303,0.25091
3349.95444,0.25050
3348.02586,0.25062
3346.09727,0.25067
3344.16869,0.25056
3342.24010,0.25064
3340.31151,0.25087
3338.38293,0.25096
3336.45434,0.25081
3334.52575,0.25081
3332.59717,0.25089
3330.66858,0.25116
3328.73999,0.25143
3326.81141,0.25121
3324.88282,0.25082
3322.95424,0.25065
3321.02565,0.25092
3319.09706,0.25118
3317.16848,0.25116
3315.23989,0.25113
3313.31130,0.25110
3311.38272,0.25119
3309.45413,0.25131
3307.52555,0.25107
3305.59696,0.25069
3303.66837,0.25061
3301.73979,0.25049
3299.81120,0.25032
3297.88261,0.25014
3295.95403,0.24977
3294.02544,0.24950
3292.09685,0.24923
3290.16827,0.24877
3288.23968,0.24853
3286.31110,0.24850
3284.38251,0.24796
3282.45392,0.24701
3280.52534,0.24640
3278.59675,0.24605
3276.66816,0.24560
3274.73958,0.24478
3272.81099,0.24382
3270.88241,0.24287
3268.95382,0.24198
3267.02523,0.24127
3265.09665,0.24037
3263.16806,0.23946
3261.23947,0.23850
3259.31089,0.23734
3257.38230,0.23618
3255.45371,0.23501
3253.52513,0.23422
3251.59654,0.23351
3249.66796,0.23253
3247.73937,0.23137
3245.81078,0.23000
3243.88220,0.22905
3241.95361,0.22856
3240.02502,0.22755
3238.09644,0.22640
3236.16785,0.22585
3234.23927,0.22523
3232.31068,0.22417
3230.38209,0.22318
3228.45351,0.22244
3226.52492,0.22161
3224.59633,0.22056
3222.66775,0.21954
3220.73916,0.21862
3218.81057,0.21791
3216.88199,0.21729
3214.95340,0.21646
3213.02482,0.21553
3211.09623,0.21477
3209.16764,0.21398
3207.23906,0.21297
3205.31047,0.21200
3203.38188,0.21099
3201.45330,0.20998
3199.52471,0.20932
3197.59612,0.20878
3195.66754,0.20798
3193.73895,0.20679
3191.81037,0.20570
3189.88178,0.20496
3187.95319,0.20422
3186.02461,0.20322
3184.09602,0.20224
3182.16743,0.20131
3180.23885,0.20013
3178.31026,0.19920
3176.38168,0.19835
3174.45309,0.19714
3172.52450,0.19610
3170.59592,0.19542
3168.66733,0.19484
3166.73874,0.19391
3164.81016,0.19288
3162.88157,0.19199
3160.95298,0.19099
3159.02440,0.19006
3157.09581,0.18896
3155.16723,0.18815
3153.23864,0.18789
3151.31005,0.18722
3149.38147,0.18608
3147.45288,0.18506
3145.52429,0.18427
3143.59571,0.18364
3141.66712,0.18320
3139.73854,0.18291
3137.80995,0.18223
3135.88136,0.18103
3133.95278,0.18011
3132.02419,0.17974
3130.09560,0.17923
3128.16702,0.17860
3126.23843,0.17818
3124.30984,0.17771
3122.38126,0.17708
3120.45267,0.17651
3118.52409,0.17618
3116.59550,0.17576
3114.66691,0.17511
3112.73833,0.17458
3110.80974,0.17426
3108.88115,0.17421
3106.95257,0.17391
3105.02398,0.17336
3103.09540,0.17304
3101.16681,0.17274
3099.23822,0.17230
3097.30964,0.17177
3095.38105,0.17149
3093.45246,0.17133
3091.52388,0.17080
3089.59529,0.17031
3087.66670,0.16998
3085.73812,0.16943
3083.80953,0.16873
3081.88095,0.16837
3079.95236,0.16836
3078.02377,0.16807
3076.09519,0.16757
3074.16660,0.16695
3072.23801,0.16631
3070.30943,0.16583
3068.38084,0.16522
3066.45225,0.16454
3064.52367,0.16380
3062.59508,0.16300
3060.66650,0.16253
3058.73791,0.16194
3056.80932,0.16097
3054.88074,0.16006
3052.95215,0.15936
3051.02356,0.15885
3049.09498,0.15815
3047.16639,0.15734
3045.23781,0.15679
3043.30922,0.15618
3041.38063,0.15562
3039.45205,0.15499
3037.52346,0.15415
3035.59487,0.15370
3033.66629,0.15345
3031.73770,0.15292
3029.80911,0.15228
3027.88053,0.15183
3025.95194,0.15139
3024.02336,0.15064
3022.09477,0.15012
3020.16618,0.14992
3018.23760,0.14967
3016.30901,0.14958
3014.38042,0.14947
3012.45184,0.14915
3010.52325,0.14899
3008.59467,0.14923
3006.66608,0.14969
3004.73749,0.15022
3002.80891,0.15070
3000.88032,0.15110
2998.95173,0.15163
2997.02315,0.15222
2995.09456,0.15307
2993.16597,0.15433
2991.23739,0.15544
2989.30880,0.15663
2987.38022,0.15835
2985.45163,0.16010
2983.52304,0.16181
2981.59446,0.16375
2979.66587,0.16572
2977.73728,0.16768
2975.80870,0.16986
2973.88011,0.17211
2971.95153,0.17426
2970.02294,0.17654
2968.09435,0.17914
2966.16577,0.18159
2964.23718,0.18384
2962.30859,0.18632
2960.38001,0.18870
2958.45142,0.19099
2956.52283,0.19312
2954.59425,0.19500
2952.66566,0.19725
2950.73708,0.19936
2948.80849,0.20138
2946.87990,0.20414
2944.95132,0.20767
2943.02273,0.21171
2941.09414,0.21601
2939.16556,0.22073
2937.23697,0.22594
2935.30838,0.23145
2933.37980,0.23676
2931.45121,0.24156
2929.52263,0.24587
2927.59404,0.24933
2925.66545,0.25220
2923.73687,0.25433
2921.80828,0.25503
2919.87969,0.25392
2917.95111,0.25014
2916.02252,0.24302
2914.09394,0.23360
2912.16535,0.22425
2910.23676,0.21652
2908.30818,0.21059
2906.37959,0.20584
2904.45100,0.20161
2902.52242,0.19786
2900.59383,0.19444
2898.66524,0.19130
2896.73666,0.18846
2894.80807,0.18556
2892.87949,0.18249
2890.95090,0.17973
2889.02231,0.17744
2887.09373,0.17517
2885.16514,0.17302
2883.23655,0.17113
2881.30797,0.16970
2879.37938,0.16880
2877.45080,0.16804
2875.52221,0.16791
2873.59362,0.16812
2871.66504,0.16817
2869.73645,0.16855
2867.80786,0.16913
2865.87928,0.17022
2863.95069,0.17247
2862.02210,0.17606
2860.09352,0.18114
2858.16493,0.18727
2856.23635,0.19365
2854.30776,0.19891
2852.37917,0.20130
2850.45059,0.19922
2848.52200,0.19166
2846.59341,0.18005
2844.66483,0.16785
2842.73624,0.15712
2840.80766,0.14805
2838.87907,0.14065
2836.95048,0.13463
2835.02190,0.12974
2833.09331,0.12591
2831.16472,0.12272
2829.23614,0.11990
2827.30755,0.11727
2825.37896,0.11494
2823.45038,0.11306
2821.52179,0.11126
2819.59321,0.10957
2817.66462,0.10792
2815.73603,0.10619
2813.80745,0.10476
2811.87886,0.10352
2809.95027,0.10237
2808.02169,0.10128
2806.09310,0.10006
2804.16451,0.09904
2802.23593,0.09809
2800.30734,0.09702
2798.37876,0.09594
2796.45017,0.09499
2794.52158,0.09416
2792.59300,0.09335
2790.66441,0.09261
2788.73582,0.09168
2786.80724,0.09090
2784.87865,0.09036
2782.95007,0.08964
2781.02148,0.08894
2779.09289,0.08827
2777.16431,0.08766
2775.23572,0.08707
2773.30713,0.08635
2771.37855,0.08560
2769.44996,0.08476
2767.52137,0.08427
2765.59279,0.08394
2763.66420,0.08338
2761.73562,0.08292
2759.80703,0.08252
2757.87844,0.08205
2755.94986,0.08144
2754.02127,0.08088
2752.09268,0.08061
2750.16410,0.08035
2748.23551,0.07992
2746.30693,0.07934
2744.37834,0.07883
2742.44975,0.07838
2740.52117,0.07798
2738.59258,0.07770
2736.66399,0.07726
2734.73541,0.07688
2732.80682,0.07673
2730.87823,0.07644
2728.94965,0.07593
2727.02106,0.07535
2725.09248,0.07475
2723.16389,0.07422
2721.23530,0.07375
2719.30672,0.07321
2717.37813,0.07271
2715.44954,0.07225
2713.52096,0.07175
2711.59237,0.07120
2709.66379,0.07081
2707.73520,0.07052
2705.80661,0.07004
2703.87803,0.06953
2701.94944,0.06908
2700.02085,0.06866
2698.09227,0.06831
2696.16368,0.06804
2694.23509,0.06763
2692.30651,0.06708
2690.37792,0.06674
2688.44934,0.06648
2686.52075,0.06617
2684.59216,0.06586
2682.66358,0.06556
2680.73499,0.06511
2678.80640,0.06464
2676.87782,0.06438
2674.94923,0.06400
2673.02064,0.06356
2671.09206,0.06311
2669.16347,0.06263
2667.23489,0.06236
2665.30630,0.06202
2663.37771,0.06163
2661.44913,0.06125
2659.52054,0.06080
2657.59195,0.06038
2655.66337,0.05994
2653.73478,0.05957
2651.80620,0.05928
2649.87761,0.05906
2647.94902,0.05859
2646.02044,0.05792
2644.09185,0.05754
2642.16326,0.05737
2640.23468,0.05720
2638.30609,0.05683
2636.37750,0.05641
2634.44892,0.05614
2632.52033,0.05586
2630.59175,0.05545
2628.66316,0.05500
2626.73457,0.05476
2624.80599,0.05429
2622.87740,0.05375
2620.94881,0.05337
2619.02023,0.05281
2617.09164,0.05241
2615.16306,0.05208
2613.23447,0.05169
2611.30588,0.05142
2609.37730,0.05105
2607.44871,0.05059
2605.52012,0.05017
2603.59154,0.04983
2601.66295,0.04953
2599.73436,0.04921
2597.80578,0.04885
2595.87719,0.04853
2593.94861,0.04820
2592.02002,0.04772
2590.09143,0.04729
2588.16285,0.04687
2586.23426,0.04635
2584.30567,0.04596
2582.37709,0.04572
2580.44850,0.04530
2578.51991,0.04495
2576.59133,0.04483
2574.66274,0.04458
2572.73416,0.04423
2570.80557,0.04382
2568.87698,0.04344
2566.94840,0.04309
2565.01981,0.04269
2563.09122,0.04248
2561.16264,0.04215
2559.23405,0.04184
2557.30547,0.04172
2555.37688,0.04137
2553.44829,0.04097
2551.51971,0.04067
2549.59112,0.04029
2547.66253,0.03991
2545.73395,0.03967
2543.80536,0.03950
2541.87677,0.03922
2539.94819,0.03885
2538.01960,0.03852
2536.09102,0.03824
2534.16243,0.03804
2532.23384,0.03793
2530.30526,0.03768
2528.37667,0.03724
2526.44808,0.03687
2524.51950,0.03662
2522.59091,0.03640
2520.66233,0.03607
2518.73374,0.03562
2516.80515,0.03528
2514.87657,0.03513
2512.94798,0.03491
2511.01939,0.03453
2509.09081,0.03419
2507.16222,0.03400
2505.23363,0.03373
2503.30505,0.03332
2501.37646,0.03312
2499.44788,0.03297
2497.51929,0.03251
2495.59070,0.03203
2493.66212,0.03170
2491.73353,0.03142
2489.80494,0.03106
2487.87636,0.03064
2485.94777,0.03032
2484.01919,0.02999
2482.09060,0.02971
2480.16201,0.02948
2478.23343,0.02919
2476.30484,0.02883
2474.37625,0.02842
2472.44767,0.02811
2470.51908,0.02781
2468.59049,0.02758
2466.66191,0.02739
2464.73332,0.02707
2462.80474,0.02671
2460.87615,0.02632
2458.94756,0.02597
2457.01898,0.02555
2455.09039,0.02518
2453.16180,0.02501
2451.23322,0.02470
2449.30463,0.02432
2447.37604,0.02396
2445.44746,0.02364
2443.51887,0.02335
2441.59029,0.02305
2439.66170,0.02275
2437.73311,0.02230
2435.80453,0.02195
2433.87594,0.02181
2431.94735,0.02152
2430.01877,0.02109
2428.09018,0.02068
2426.16160,0.02043
2424.23301,0.02026
2422.30442,0.01997
2420.37584,0.01963
2418.44725,0.01941
2416.51866,0.01911
2414.59008,0.01875
2412.66149,0.01852
2410.73290,0.01823
2408.80432,0.01778
2406.87573,0.01742
2404.94715,0.01723
2403.01856,0.01694
2401.08997,0.01658
2399.16139,0.01639
2397.23280,0.01617
2395.30421,0.01588
2393.37563,0.01555
2391.44704,0.01520
2389.51846,0.01495
2387.58987,0.01464
2385.66128,0.01439
2383.73270,0.01430
2381.80411,0.01426
2379.87552,0.01425
2377.94694,0.01419
2376.01835,0.01429
2374.08976,0.01462
2372.16118,0.01495
2370.23259,0.01518
2368.30401,0.01527
2366.37542,0.01535
2364.44683,0.01549
2362.51825,0.01551
2360.58966,0.01526
2358.66107,0.01476
2356.73249,0.01412
2354.80390,0.01342
2352.87532,0.01262
2350.94673,0.01166
2349.01814,0.01114
2347.08956,0.01141
2345.16097,0.01188
2343.23238,0.01212
2341.30380,0.01234
2339.37521,0.01253
2337.44662,0.01240
2335.51804,0.01207
2333.58945,0.01177
2331.66087,0.01134
2329.73228,0.01090
2327.80369,0.01057
2325.87511,0.01021
2323.94652,0.00977
2322.01793,0.00938
2320.08935,0.00909
2318.16076,0.00875
2316.23217,0.00839
2314.30359,0.00800
2312.37500,0.00760
2310.44642,0.00730
2308.51783,0.00696
2306.58924,0.00669
2304.66066,0.00651
2302.73207,0.00630
2300.80348,0.00606
2298.87490,0.00586
2296.94631,0.00572
2295.01773,0.00562
2293.08914,0.00549
2291.16055,0.00522
2289.23197,0.00505
2287.30338,0.00492
2285.37479,0.00474
2283.44621,0.00469
2281.51762,0.00461
2279.58903,0.00451
2277.66045,0.00445
2275.73186,0.00442
2273.80328,0.00432
2271.87469,0.00406
2269.94610,0.00381
2268.01752,0.00367
2266.08893,0.00361
2264.16034,0.00350
2262.23176,0.00343
2260.30317,0.00343
2258.37459,0.00334
2256.44600,0.00319
2254.51741,0.00307
2252.58883,0.00306
2250.66024,0.00295
2248.73165,0.00269
2246.80307,0.00250
2244.87448,0.00241
2242.94589,0.00231
2241.01731,0.00225
2239.08872,0.00230
2237.16014,0.00224
2235.23155,0.00215
2233.30296,0.00207
2231.37438,0.00197
2229.44579,0.00187
2227.51720,0.00166
2225.58862,0.00158
2223.66003,0.00153
2221.73145,0.00136
2219.80286,0.00136
2217.87427,0.00136
2215.94569,0.00124
2214.01710,0.00112
2212.08851,0.00101
2210.15993,0.00088
2208.23134,0.00076
2206.30275,0.00082
2204.37417,0.00092
2202.44558,0.00081
2200.51700,0.00058
2198.58841,0.00038
2196.65982,0.00026
2194.73124,0.00023
2192.80265,0.00030
2190.87406,0.00030
2188.94548,0.00020
2187.01689,0.00020
2185.08830,0.00025
2183.15972,0.00023
2181.23113,0.00015
2179.30255,0.00000
2177.37396,0.00009
2175.44537,0.00030
2173.51679,0.00029
2171.58820,0.00021
2169.65961,0.00016
2167.73103,0.00020
2165.80244,0.00024
2163.87386,0.00021
2161.94527,0.00017
2160.01668,0.00015
2158.08810,0.00011
2156.15951,0.00011
2154.23092,0.00032
2152.30234,0.00043
2150.37375,0.00035
2148.44516,0.00033
2146.51658,0.00032
2144.58799,0.00037
2142.65941,0.00034
2140.73082,0.00026
2138.80223,0.00031
2136.87365,0.00034
2134.94506,0.00032
2133.01647,0.00025
2131.08789,0.00030
2129.15930,0.00033
2127.23072,0.00012
2125.30213,0.00007
2123.37354,0.00011
2121.44496,0.00000
2119.51637,0.00002
2117.58778,0.00013
2115.65920,0.00005
2113.73061,-0.00007
2111.80202,-0.00009
2109.87344,-0.00009
2107.94485,-0.00011
2106.01627,-0.00004
2104.08768,0.00005
2102.15909,-0.00003
2100.23051,-0.00015
2098.30192,-0.00014
2096.37333,-0.00015
2094.44475,-0.00018
2092.51616,-0.00014
2090.58758,-0.00017
2088.65899,-0.00018
2086.73040,-0.00007
2084.80182,0.00002
2082.87323,0.00006
2080.94464,0.00000
2079.01606,-0.00006
2077.08747,-0.00008
2075.15888,-0.00016
2073.23030,-0.00016
2071.30171,-0.00009
2069.37313,-0.00011
2067.44454,-0.00014
2065.51595,-0.00014
2063.58737,-0.00016
2061.65878,-0.00009
2059.73019,0.00002
2057.80161,-0.00002
2055.87302,-0.00006
2053.94443,0.00007
2052.01585,0.00024
2050.08726,0.00034
2048.15868,0.00051
2046.23009,0.00068
2044.30150,0.00066
2042.37292,0.00084
2040.44433,0.00122
2038.51574,0.00152
2036.58716,0.00187
2034.65857,0.00228
2032.72999,0.00254
2030.80140,0.00267
2028.87281,0.00284
2026.94423,0.00295
2025.01564,0.00302
2023.08705,0.00321
2021.15847,0.00329
2019.22988,0.00328
2017.30129,0.00337
2015.37271,0.00349
2013.44412,0.00364
2011.51554,0.00389
2009.58695,0.00421
2007.65836,0.00445
2005.72978,0.00456
2003.80119,0.00466
2001.87260,0.00473
1999.94402,0.00480
1998.01543,0.00488
1996.08685,0.00484
1994.15826,0.00478
1992.22967,0.00472
1990.30109,0.00457
1988.37250,0.00447
1986.44391,0.00437
1984.51533,0.00415
1982.58674,0.00400
1980.65815,0.00389
1978.72957,0.00377
1976.80098,0.00363
1974.87240,0.00349
1972.94381,0.00330
1971.01522,0.00312
1969.08664,0.00305
1967.15805,0.00267
1965.22946,0.00228
1963.30088,0.00212
1961.37229,0.00189
1959.44371,0.00172
1957.51512,0.00156
1955.58653,0.00137
1953.65795,0.00125
1951.72936,0.00114
1949.80077,0.00111
1947.87219,0.00104
1945.94360,0.00095
1944.01501,0.00067
1942.08643,0.00032
1940.15784,0.00025
1938.22926,0.00017
1936.30067,0.00009
1934.37208,0.00004
1932.44350,0.00004
1930.51491,0.00016
1928.58632,0.00008
1926.65774,-0.00006
1924.72915,0.00000
1922.80056,-0.00013
1920.87198,-0.00009
1918.94339,0.00017
1917.01481,0.00026
1915.08622,0.00069
1913.15763,0.00142
1911.22905,0.00192
1909.30046,0.00241
1907.37187,0.00300
1905.44329,0.00368
1903.51470,0.00445
1901.58612,0.00520
1899.65753,0.00584
1897.72894,0.00649
1895.80036,0.00716
1893.87177,0.00755
1891.94318,0.00814
1890.01460,0.00877
1888.08601,0.00912
1886.15742,0.00959
1884.22884,0.00993
1882.30025,0.01019
1880.37167,0.01044
1878.44308,0.01051
1876.51449,0.01055
1874.58591,0.01057
1872.65732,0.01076
1870.72873,0.01089
1868.80015,0.01053
1866.87156,0.00984
1864.94298,0.00947
1863.01439,0.00911
1861.08580,0.00835
1859.15722,0.00748
1857.22863,0.00652
1855.30004,0.00563
1853.37146,0.00458
1851.44287,0.00364
1849.51428,0.00287
1847.58570,0.00215
1845.65711,0.00172
1843.72853,0.00066
1841.79994,0.00000
1839.87135,-0.00007
1837.94277,-0.00045
1836.01418,-0.00085
1834.08559,-0.00108
1832.15701,-0.00091
1830.22842,-0.00100
1828.29984,-0.00115
1826.37125,-0.00085
1824.44266,-0.00072
1822.51408,-0.00041
1820.58549,0.00000
1818.65690,0.00038
1816.72832,0.00088
1814.79973,0.00144
1812.87114,0.00220
1810.94256,0.00305
1809.01397,0.00388
1807.08539,0.00483
1805.15680,0.00599
1803.22821,0.00725
1801.29963,0.00866
1799.37104,0.01007
1797.44245,0.01157
1795.51387,0.01337
1793.58528,0.01510
1791.65669,0.01667
1789.72811,0.01861
1787.79952,0.02095
1785.87094,0.02304
1783.94235,0.02509
1782.01376,0.02720
1780.08518,0.02918
1778.15659,0.03131
1776.22800,0.03341
1774.29942,0.03555
1772.37083,0.03721
1770.44225,0.03880
1768.51366,0.04096
1766.58507,0.04286
1764.65649,0.04523
1762.72790,0.04762
1760.79931,0.04975
1758.87073,0.05253
1756.94214,0.05543
1755.01355,0.05852
1753.08497,0.06196
1751.15638,0.06533
1749.22780,0.06883
1747.29921,0.07281
1745.37062,0.07711
1743.44204,0.08166
1741.51345,0.08620
1739.58486,0.09059
1737.65628,0.09472
1735.72769,0.09848
1733.79911,0.10138
1731.87052,0.10413
1729.94193,0.10738
1728.01335,0.11031
1726.08476,0.11349
1724.15617,0.11657
1722.22759,0.11971
1720.29900,0.12327
1718.37041,0.12628
1716.44183,0.12929
1714.51324,0.13243
1712.58466,0.13574
1710.65607,0.13892
1708.72748,0.14178
1706.79890,0.14491
1704.87031,0.14793
1702.94172,0.15151
1701.01314,0.15499
1699.08455,0.15808
1697.15596,0.16208
1695.22738,0.16539
1693.29879,0.16860
1691.37021,0.17243
1689.44162,0.17553
1687.51303,0.17872
1685.58445,0.18202
1683.65586,0.18462
1681.72727,0.18806
1679.79869,0.19146
1677.87010,0.19459
1675.94152,0.19744
1674.01293,0.19978
1672.08434,0.20262
1670.15576,0.20487
1668.22717,0.20686
1666.29858,0.20909
1664.37000,0.21091
1662.44141,0.21209
1660.51282,0.21290
1658.58424,0.21401
1656.65565,0.21483
1654.72707,0.21535
1652.79848,0.21343
1650.86989,0.21247
1648.94131,0.21376
1647.01272,0.21348
1645.08413,0.21272
1643.15555,0.21282
1641.22696,0.21313
1639.29838,0.21338
1637.36979,0.21349
1635.44120,0.21280
1633.51262,0.21194
1631.58403,0.21213
1629.65544,0.21142
1627.72686,0.20987
1625.79827,0.20781
1623.86968,0.20509
1621.94110,0.20197
1620.01251,0.19949
1618.08393,0.19737
1616.15534,0.19355
1614.22675,0.19086
1612.29817,0.18903
1610.36958,0.18692
1608.44099,0.18493
1606.51241,0.18278
1604.58382,0.18076
1602.65524,0.17828
1600.72665,0.17602
1598.79806,0.17388
1596.86948,0.17161
1594.94089,0.16952
1593.01230,0.16765
1591.08372,0.16604
1589.15513,0.16414
1587.22654,0.16231
1585.29796,0.16036
1583.36937,0.15846
1581.44079,0.15664
1579.51220,0.15520
1577.58361,0.15389
1575.65503,0.15142
1573.72644,0.15000
1571.79785,0.14977
1569.86927,0.14918
1567.94068,0.14861
1566.01209,0.14864
1564.08351,0.14872
1562.15492,0.14941
1560.22634,0.15005
1558.29775,0.14892
1556.36916,0.14973
1554.44058,0.15104
1552.51199,0.15159
1550.58340,0.15216
1548.65482,0.15219
1546.72623,0.15245
1544.79765,0.15232
1542.86906,0.15196
1540.94047,0.15163
1539.01189,0.14989
1537.08330,0.14987
1535.15471,0.15001
1533.22613,0.14883
1531.29754,0.14783
1529.36895,0.14729
1527.44037,0.14639
1525.51178,0.14489
1523.58320,0.14409
1521.65461,0.14321
1519.72602,0.14246
1517.79744,0.14240
1515.86885,0.14153
1513.94026,0.14004
1512.01168,0.13780
1510.08309,0.13496
1508.15451,0.13168
1506.22592,0.12628
1504.29733,0.12203
1502.36875,0.11946
1500.44016,0.11611
1498.51157,0.11212
1496.58299,0.10788
1494.65440,0.10395
1492.72581,0.10131
1490.79723,0.09869
1488.86864,0.09590
1486.94006,0.09402
1485.01147,0.09261
1483.08288,0.09203
1481.15430,0.09239
1479.22571,0.09347
1477.29712,0.09534
1475.36854,0.09785
1473.43995,0.10168
1471.51137,0.10731
1469.58278,0.11360
1467.65419,0.11908
1465.72561,0.12197
1463.79702,0.12284
1461.86843,0.12354
1459.93985,0.12446
1458.01126,0.12514
1456.08267,0.12508
1454.15409,0.12581
1452.22550,0.12627
1450.29692,0.12604
1448.36833,0.12571
1446.43974,0.12518
1444.51116,0.12491
1442.58257,0.12449
1440.65398,0.12419
1438.72540,0.12425
1436.79681,0.12361
1434.86822,0.12284
1432.93964,0.12273
1431.01105,0.12241
1429.08247,0.12183
1427.15388,0.12172
1425.22529,0.12154
1423.29671,0.12130
1421.36812,0.12147
1419.43953,0.12094
1417.51095,0.12007
1415.58236,0.12005
1413.65378,0.11987
1411.72519,0.11913
1409.79660,0.11817
1407.86802,0.11745
1405.93943,0.11669
1404.01084,0.11532
1402.08226,0.11425
1400.15367,0.11316
1398.22508,0.11182
1396.29650,0.11075
1394.36791,0.10972
1392.43933,0.10900
1390.51074,0.10849
1388.58215,0.10751
1386.65357,0.10556
1384.72498,0.10424
1382.79639,0.10524
1380.86781,0.10743
1378.93922,0.10889
1377.01064,0.10911
1375.08205,0.10859
1373.15346,0.10769
1371.22488,0.10664
1369.29629,0.10532
1367.36770,0.10348
1365.43912,0.10169
1363.51053,0.09993
1361.58194,0.09814
1359.65336,0.09687
1357.72477,0.09609
1355.79619,0.09516
1353.86760,0.09421
1351.93901,0.09375
1350.01043,0.09331
1348.08184,0.09274
1346.15325,0.09223
1344.22467,0.09168
1342.29608,0.09107
1340.36750,0.09043
1338.43891,0.08984
1336.51032,0.08946
1334.58174,0.08930
1332.65315,0.08910
1330.72456,0.08882
1328.79598,0.08846
1326.86739,0.08820
1324.93880,0.08812
1323.01022,0.08797
1321.08163,0.08788
1319.15305,0.08766
1317.22446,0.08730
1315.29587,0.08711
1313.36729,0.08686
1311.43870,0.08656
1309.51011,0.08654
1307.58153,0.08652
1305.65294,0.08625
1303.72435,0.08635
1301.79577,0.08658
1299.86718,0.08664
1297.93860,0.08708
1296.01001,0.08784
1294.08142,0.08868
1292.15284,0.08963
1290.22425,0.09071
1288.29566,0.09198
1286.36708,0.09346
1284.43849,0.09520
1282.50991,0.09695
1280.58132,0.09871
1278.65273,0.10077
1276.72415,0.10300
1274.79556,0.10536
1272.86697,0.10788
1270.93839,0.11076
1269.00980,0.11406
1267.08121,0.11748
1265.15263,0.12128
1263.22404,0.12597
1261.29546,0.13129
1259.36687,0.13696
1257.43828,0.14321
1255.50970,0.15035
1253.58111,0.15800
1251.65252,0.16557
1249.72394,0.17319
1247.79535,0.18050
1245.86677,0.18717
1243.93818,0.19376
1242.00959,0.19994
1240.08101,0.20549
1238.15242,0.21056
1236.22383,0.21503
1234.29525,0.21915
1232.36666,0.22287
1230.43807,0.22626
1228.50949,0.22930
1226.58090,0.23202
1224.65232,0.23483
1222.72373,0.23741
1220.79514,0.23990
1218.86656,0.24242
1216.93797,0.24466
1215.00938,0.24690
1213.08080,0.24940
1211.15221,0.25196
1209.22363,0.25402
1207.29504,0.25580
1205.36645,0.25796
1203.43787,0.26003
1201.50928,0.26163
1199.58069,0.26300
1197.65211,0.26455
1195.72352,0.26646
1193.79493,0.26818
1191.86635,0.26956
1189.93776,0.27121
1188.00918,0.27275
1186.08059,0.27401
1184.15200,0.27572
1182.22342,0.27745
1180.29483,0.27918
1178.36624,0.28169
1176.43766,0.28426
1174.50907,0.28648
1172.58048,0.28886
1170.65190,0.29144
1168.72331,0.29422
1166.79473,0.29708
1164.86614,0.29989
1162.93755,0.30245
1161.00897,0.30415
1159.08038,0.30532
1157.15179,0.30649
1155.22321,0.30726
1153.29462,0.30820
1151.36604,0.30994
1149.43745,0.31211
1147.50886,0.31417
1145.58028,0.31599
1143.65169,0.31862
1141.72310,0.32175
1139.79452,0.32445
1137.86593,0.32702
1135.93734,0.32997
1134.00876,0.33385
1132.08017,0.33770
1130.15159,0.34065
1128.22300,0.34423
1126.29441,0.34920
1124.36583,0.35421
1122.43724,0.35902
1120.50865,0.36453
1118.58007,0.37067
1116.65148,0.37705
1114.72290,0.38367
1112.79431,0.39058
1110.86572,0.39727
1108.93714,0.40426
1107.00855,0.41143
1105.07996,0.41749
1103.15138,0.42284
1101.22279,0.42692
1099.29420,0.43014
1097.36562,0.43301
1095.43703,0.43452
1093.50845,0.43487
1091.57986,0.43450
1089.65127,0.43431
1087.72269,0.43340
1085.79410,0.43213
1083.86551,0.43122
1081.93693,0.42938
1080.00834,0.42737
1078.07976,0.42483
1076.15117,0.42183
1074.22258,0.41909
1072.29400,0.41612
1070.36541,0.41311
1068.43682,0.41071
1066.50824,0.40900
1064.57965,0.40684
1062.65106,0.40450
1060.72248,0.40149
1058.79389,0.39758
1056.86531,0.39401
1054.93672,0.38959
1053.00813,0.38460
1051.07955,0.38037
1049.15096,0.37643
1047.22237,0.37260
1045.29379,0.36971
1043.36520,0.36817
1041.43661,0.36666
1039.50803,0.36493
1037.57944,0.36355
1035.65086,0.36255
1033.72227,0.36130
1031.79368,0.35896
1029.86510,0.35645
1027.93651,0.35341
1026.00792,0.34943
1024.07934,0.34562
1022.15075,0.34143
1020.22217,0.33728
1018.29358,0.33375
1016.36499,0.32983
1014.43641,0.32617
1012.50782,0.32300
1010.57923,0.31936
1008.65065,0.31542
1006.72206,0.31161
1004.79347,0.30756
1002.86489,0.30281
1000.93630,0.29774
999.00772,0.29330
997.07913,0.28885
995.15054,0.28342
993.22196,0.27785
991.29337,0.27267
989.36478,0.26733
987.43620,0.26141
985.50761,0.25501
983.57903,0.24832
981.65044,0.24092
979.72185,0.23313
977.79327,0.22505
975.86468,0.21654
973.93609,0.20789
972.00751,0.19905
970.07892,0.19022
968.15033,0.18155
966.22175,0.17386
964.29316,0.16705
962.36458,0.16033
960.43599,0.15444
958.50740,0.14928
956.57882,0.14482
954.65023,0.14100
952.72164,0.13711
950.79306,0.13377
948.86447,0.13131
946.93589,0.12937
945.00730,0.12735
943.07871,0.12541
941.15013,0.12410
939.22154,0.12291
937.29295,0.12158
935.36437,0.12028
933.43578,0.11900
931.50719,0.11737
929.57861,0.11546
927.65002,0.11384
925.72144,0.11284
923.79285,0.11234
921.86426,0.11165
919.93568,0.11086
918.00709,0.11045
916.07850,0.10988
914.14992,0.10847
912.22133,0.10629
910.29274,0.10332
908.36416,0.09945
906.43557,0.09481
904.50699,0.08906
902.57840,0.08285
900.64981,0.07685
898.72123,0.07093
896.79264,0.06570
894.86405,0.06077
892.93547,0.05598
891.00688,0.05167
889.07830,0.04777
887.14971,0.04459
885.22112,0.04116
883.29254,0.03740
881.36395,0.03381
879.43536,0.03018
877.50678,0.02712
875.57819,0.02428
873.64960,0.02119
871.72102,0.01801
869.79243,0.01495
867.86385,0.01239
865.93526,0.00997
864.00667,0.00745
862.07809,0.00508
860.14950,0.00359
858.22091,0.00257
856.29233,0.00094
854.36374,0.00000
852.43516,0.00037
850.50657,0.00117
848.57798,0.00223
846.64940,0.00328
844.72081,0.00481
842.79222,0.00756
840.86364,0.01125
838.93505,0.01551
837.00646,0.01970
835.07788,0.02364
833.14929,0.02743
831.22071,0.03080
829.29212,0.03375
827.36353,0.03582
825.43495,0.03709
823.50636,0.03852
821.57777,0.04035
819.64919,0.04231
817.72060,0.04390
815.79201,0.04580
813.86343,0.04880
811.93484,0.05185
810.00626,0.05582
808.07767,0.06243
806.14908,0.07013
804.22050,0.07712
802.29191,0.08227
800.36332,0.08432
798.43474,0.08368
796.50615,0.08034
794.57757,0.07502
792.64898,0.07005
790.72039,0.06553
788.79181,0.06121
786.86322,0.05857
784.93463,0.05856
783.00605,0.05984
781.07746,0.05992
779.14887,0.05737
777.22029,0.05175
775.29170,0.04471
773.36312,0.03823
771.43453,0.03257
769.50594,0.02835
767.57736,0.02553
765.64877,0.02387
763.72018,0.02356
761.79160,0.02336
759.86301,0.02315
757.93443,0.02370
756.00584,0.02429
754.07725,0.02427
752.14867,0.02351
750.22008,0.02214
748.29149,0.02137
746.36291,0.02090
744.43432,0.01886
742.50573,0.01584
740.57715,0.01269
738.64856,0.00942
736.71998,0.00710
734.79139,0.00540
732.86280,0.00413
730.93422,0.00379
729.00563,0.00390
727.07704,0.00431
725.14846,0.00424
723.21987,0.00385
721.29129,0.00378
719.36270,0.00339
717.43411,0.00236
715.50553,0.00085
713.57694,0.00000
711.64835,0.00049
709.71977,0.00167
707.79118,0.00297
705.86259,0.00454
703.93401,0.00658
702.00542,0.00865
700.07684,0.01218
698.14825,0.01744
696.21966,0.02134
694.29108,0.02131
692.36249,0.01721
690.43390,0.01297
688.50532,0.01054
686.57673,0.00854
684.64814,0.00733
682.71956,0.00652
680.79097,0.00576
678.86239,0.00515
676.93380,0.00406
675.00521,0.00358
673.07663,0.00363
671.14804,0.00335
669.21945,0.00327
667.29087,0.00232
665.36228,0.00048
663.43370,0.00000
661.50511,0.00034
659.57652,0.00020
657.64794,-0.00038
655.71935,-0.00049
653.79076,-0.00012
651.86218,0.00045
649.93359,0.00113
648.00500,0.00093
646.07642,0.00040
644.14783,0.00098
642.21925,0.00160
640.29066,0.00169
638.36207,0.00192
636.43349,0.00210
634.50490,0.00248
632.57631,0.00302
630.64773,0.00273
628.71914,0.00250
626.79056,0.00354
624.86197,0.00433
622.93338,0.00461
621.00480,0.00549
619.07621,0.00559
617.14762,0.00453
615.21904,0.00374
613.29045,0.00441
611.36186,0.00741
609.43328,0.01019
607.50469,0.01079
605.57611,0.01096
603.64752,0.01198
601.71893,0.01364
599.79035,0.01546
597.86176,0.01772
595.93317,0.01948
594.00459,0.02101
592.07600,0.02342
590.14742,0.02575
588.21883,0.02993
586.29024,0.03527
584.36166,0.03831
582.43307,0.04029
580.50448,0.04343
578.57590,0.04786
576.64731,0.05139
574.71872,0.05466
572.79014,0.05900
570.86155,0.06302
568.93297,0.06655
567.00438,0.06993
565.07579,0.07453
563.14721,0.07926
561.21862,0.08376
559.29003,0.08891
557.36145,0.09279
555.43286,0.09678
553.50427,0.10042
551.57569,0.10398
549.64710,0.10894
547.71852,0.11208
545.78993,0.11521
543.86134,0.12022
541.93276,0.12647
540.00417,0.13230
538.07558,0.13560
536.14700,0.13976
534.21841,0.14235
532.28983,0.14400
530.36124,0.14907
528.43265,0.15191
526.50407,0.15169
524.57548,0.14930
522.64689,0.14521
520.71831,0.14115
518.78972,0.13585
516.86113,0.13273
514.93255,0.13093
513.00396,0.12643
511.07538,0.12123
509.14679,0.11778
507.21820,0.11636
505.28962,0.11502
503.36103,0.11719
501.43244,0.12347
499.50386,0.12724
497.57527,0.13168
495.64669,0.13786
493.71810,0.14552
491.78951,0.15770
489.86093,0.16796
487.93234,0.17772
486.00375,0.19192
484.07517,0.20554
482.14658,0.21744
480.21799,0.22899
478.28941,0.23773
476.36082,0.24280
474.43224,0.24794
472.50365,0.24805
470.57506,0.24433
468.64648,0.24347
466.71789,0.23938
464.78930,0.23485
462.86072,0.22797
460.93213,0.22100
459.00355,0.21227
457.07496,0.19479
455.14637,0.18421
453.21779,0.17123
451.28920,0.15205
449.36061,0.14289
447.43203,0.13930
445.50344,0.13386
443.57485,0.12939
441.64627,0.12494
439.71768,0.11680
437.78910,0.11119
435.86051,0.10598
433.93192,0.10396
432.00334,0.10317
430.07475,0.09206
428.14616,0.08519
426.21758,0.08292
424.28899,0.07799
422.36040,0.07437
420.43182,0.06539
418.50323,0.05306
416.57465,0.04503
414.64606,0.03956
412.71747,0.03447
410.78889,0.02855
408.86030,0.01971
406.93171,0.00613
405.00313,0.00000
403.07454,0.00841
401.14596,0.01052
399.21737,0.00000
