3747.24323,0.00010
3745.31464,0.00119
3743.38605,-0.00000
3741.45747,0.00000
3739.52888,0.00157
3737.60030,0.00223
3735.67171,0.00213
3733.74312,0.00217
3731.81454,0.00247
3729.88595,0.00282
3727.95736,0.00376
3726.02878,0.00450
3724.10019,0.00502
3722.17161,0.00596
3720.24302,0.00680
3718.31443,0.00825
3716.38585,0.00997
3714.45726,0.01222
3712.52867,0.01434
3710.60009,0.01579
3708.67150,0.01834
3706.74291,0.02098
3704.81433,0.02390
3702.88574,0.02681
3700.95716,0.02871
3699.02857,0.03043
3697.09998,0.03158
3695.17140,0.03245
3693.24281,0.03307
3691.31422,0.03375
3689.38564,0.03422
3687.45705,0.03467
3685.52846,0.03661
3683.59988,0.03928
3681.67129,0.04212
3679.74271,0.04480
3677.81412,0.04814
3675.88553,0.05121
3673.95695,0.05386
3672.02836,0.05823
3670.09977,0.06197
3668.17119,0.06509
3666.24260,0.06918
3664.31402,0.07305
3662.38543,0.07678
3660.45684,0.08044
3658.52826,0.08430
3656.59967,0.08768
3654.67108,0.09048
3652.74250,0.09391
3650.81391,0.09686
3648.88532,0.09885
3646.95674,0.10098
3645.02815,0.10389
3643.09957,0.10696
3641.17098,0.10957
3639.24239,0.11205
3637.31381,0.11455
3635.38522,0.11723
3633.45663,0.11976
3631.52805,0.12248
3629.59946,0.12476
3627.67088,0.12567
3625.74229,0.12733
3623.81370,0.12924
3621.88512,0.13055
3619.95653,0.13091
3618.02794,0.12987
3616.09936,0.12943
3614.17077,0.12936
3612.24218,0.12895
3610.31360,0.12872
3608.38501,0.12828
3606.45643,0.12782
3604.52784,0.12790
3602.59925,0.12830
3600.67067,0.12859
3598.74208,0.12879
3596.81349,0.12898
3594.88491,0.12923
3592.95632,0.12945
3591.02774,0.12994
3589.09915,0.13066
3587.17056,0.13080
3585.24198,0.13116
3583.31339,0.13220
3581.38480,0.13319
3579.45622,0.13414
3577.52763,0.13509
3575.59904,0.13612
3573.67046,0.13717
3571.74187,0.13828
3569.81329,0.13955
3567.88470,0.14062
3565.95611,0.14158
3564.02753,0.14286
3562.09894,0.14425
3560.17035,0.14528
3558.24177,0.14619
3556.31318,0.14742
3554.38459,0.14881
3552.45601,0.15016
3550.52742,0.15137
3548.59884,0.15249
3546.67025,0.15357
3544.74166,0.15475
3542.81308,0.15597
3540.88449,0.15706
3538.95590,0.15814
3537.02732,0.15921
3535.09873,0.16032
3533.17015,0.16159
3531.24156,0.16272
3529.31297,0.16367
3527.38439,0.16467
3525.45580,0.16565
3523.52721,0.16667
3521.59863,0.16775
3519.67004,0.16873
3517.74145,0.16983
3515.81287,0.17101
3513.88428,0.17222
3511.95570,0.17334
3510.02711,0.17415
3508.09852,0.17491
3506.16994,0.17585
3504.24135,0.17686
3502.31276,0.17784
3500.38418,0.17887
3498.45559,0.17981
3496.52701,0.18062
3494.59842,0.18147
3492.66983,0.18235
3490.74125,0.18332
3488.81266,0.18419
3486.88407,0.18494
3484.95549,0.18563
3483.02690,0.18652
3481.09831,0.18758
3479.16973,0.18830
3477.24114,0.18897
3475.31256,0.18961
3473.38397,0.19025
3471.45538,0.19109
3469.52680,0.19197
3467.59821,0.19274
3465.66962,0.19332
3463.74104,0.19404
3461.81245,0.19476
3459.88386,0.19547
3457.95528,0.19619
3456.02669,0.19682
3454.09811,0.19757
3452.16952,0.19810
3450.24093,0.19861
3448.31235,0.19938
3446.38376,0.19999
3444.45517,0.20039
3442.52659,0.20085
3440.59800,0.20145
3438.66942,0.20198
3436.74083,0.20248
3434.81224,0.20300
3432.88366,0.20354
3430.95507,0.20408
3429.02648,0.20456
3427.09790,0.20503
3425.16931,0.20555
3423.24072,0.20606
3421.31214,0.20649
3419.38355,0.20691
3417.45497,0.20728
3415.52638,0.20766
3413.59779,0.20794
3411.66921,0.20803
3409.74062,0.20829
3407.81203,0.20860
3405.88345,0.20890
3403.95486,0.20917
3402.02628,0.20940
3400.09769,0.20977
3398.16910,0.21009
3396.24052,0.21029
3394.31193,0.21049
3392.38334,0.21079
3390.45476,0.21098
3388.52617,0.21108
3386.59758,0.21126
3384.66900,0.21131
3382.74041,0.21134
3380.81183,0.21155
3378.88324,0.21177
3376.95465,0.21186
3375.02607,0.21208
3373.09748,0.21237
3371.16889,0.21246
3369.24031,0.21243
3367.31172,0.21243
3365.38314,0.21269
3363.45455,0.21288
3361.52596,0.21281
3359.59738,0.21287
3357.66879,0.21300
3355.74020,0.21298
3353.81162,0.21298
3351.88303,0.21307
3349.95444,0.21307
3348.02586,0.21311
3346.09727,0.21316
3344.16869,0.21305
3342.24010,0.21293
3340.31151,0.21286
3338.38293,0.21297
3336.45434,0.21309
3334.52575,0.21303
3332.59717,0.21292
3330.66858,0.21270
3328.73999,0.21249
3326.81141,0.21236
3324.88282,0.21242
3322.95424,0.21255
3321.02565,0.21241
3319.09706,0.21214
3317.16848,0.21196
3315.23989,0.21188
3313.31130,0.21187
3311.38272,0.21179
3309.45413,0.21157
3307.52555,0.21125
3305.59696,0.21085
3303.66837,0.21063
3301.73979,0.21060
3299.81120,0.21042
3297.88261,0.21007
3295.95403,0.20978
3294.02544,0.20961
3292.09685,0.20940
3290.16827,0.20907
3288.23968,0.20871
3286.31110,0.20832
3284.38251,0.20790
3282.45392,0.20740
3280.52534,0.20668
3278.59675,0.20594
3276.66816,0.20545
3274.73958,0.20505
3272.81099,0.20439
3270.88241,0.20360
3268.95382,0.20293
3267.02523,0.20217
3265.09665,0.20131
3263.16806,0.20057
3261.23947,0.19984
3259.31089,0.19909
3257.38230,0.19835
3255.45371,0.19752
3253.52513,0.19666
3251.59654,0.19587
3249.66796,0.19507
3247.73937,0.19427
3245.81078,0.19355
3243.88220,0.19279
3241.95361,0.19204
3240.02502,0.19134
3238.09644,0.19049
3236.16785,0.18968
3234.23927,0.18890
3232.31068,0.18803
3230.38209,0.18724
3228.45351,0.18661
3226.52492,0.18603
3224.59633,0.18528
3222.66775,0.18458
3220.73916,0.18405
3218.81057,0.18330
3216.88199,0.18250
3214.95340,0.18184
3213.02482,0.18109
3211.09623,0.18027
3209.16764,0.17944
3207.23906,0.17880
3205.31047,0.17832
3203.38188,0.17757
3201.45330,0.17670
3199.52471,0.17601
3197.59612,0.17528
3195.66754,0.17448
3193.73895,0.17379
3191.81037,0.17309
3189.88178,0.17232
3187.95319,0.17149
3186.02461,0.17062
3184.09602,0.16983
3182.16743,0.16905
3180.23885,0.16826
3178.31026,0.16746
3176.38168,0.16667
3174.45309,0.16600
3172.52450,0.16514
3170.59592,0.16416
3168.66733,0.16347
3166.73874,0.16282
3164.81016,0.16209
3162.88157,0.16131
3160.95298,0.16053
3159.02440,0.15978
3157.09581,0.15915
3155.16723,0.15848
3153.23864,0.15756
3151.31005,0.15678
3149.38147,0.15622
3147.45288,0.15554
3145.52429,0.15488
3143.59571,0.15416
3141.66712,0.15348
3139.73854,0.15296
3137.80995,0.15233
3135.88136,0.15172
3133.95278,0.15119
3132.02419,0.15064
3130.09560,0.15008
3128.16702,0.14949
3126.23843,0.14902
3124.30984,0.14850
3122.38126,0.14785
3120.45267,0.14744
3118.52409,0.14710
3116.59550,0.14658
3114.66691,0.14599
3112.73833,0.14547
3110.80974,0.14506
3108.88115,0.14459
3106.95257,0.14408
3105.02398,0.14374
3103.09540,0.14346
3101.16681,0.14320
3099.23822,0.14282
3097.30964,0.14222
3095.38105,0.14171
3093.45246,0.14137
3091.52388,0.14102
3089.59529,0.14062
3087.66670,0.14021
3085.73812,0.13974
3083.80953,0.13913
3081.88095,0.13849
3079.95236,0.13811
3078.02377,0.13782
3076.09519,0.13724
3074.16660,0.13662
3072.23801,0.13621
3070.30943,0.13574
3068.38084,0.13522
3066.45225,0.13477
3064.52367,0.13421
3062.59508,0.13344
3060.66650,0.13271
3058.73791,0.13207
3056.80932,0.13144
3054.88074,0.13079
3052.95215,0.13014
3051.02356,0.12948
3049.09498,0.12877
3047.16639,0.12807
3045.23781,0.12747
3043.30922,0.12692
3041.38063,0.12643
3039.45205,0.12595
3037.52346,0.12551
3035.59487,0.12506
3033.66629,0.12458
3031.73770,0.12425
3029.80911,0.12388
3027.88053,0.12333
3025.95194,0.12284
3024.02336,0.12255
3022.09477,0.12232
3020.16618,0.12206
3018.23760,0.12187
3016.30901,0.12181
3014.38042,0.12182
3012.45184,0.12186
3010.52325,0.12193
3008.59467,0.12204
3006.66608,0.12234
3004.73749,0.12281
3002.80891,0.12317
3000.88032,0.12361
2998.95173,0.12423
2997.02315,0.12485
2995.09456,0.12554
2993.16597,0.12634
2991.23739,0.12734
2989.30880,0.12855
2987.38022,0.12983
2985.45163,0.13118
2983.52304,0.13270
2981.59446,0.13446
2979.66587,0.13636
2977.73728,0.13823
2975.80870,0.14019
2973.88011,0.14240
2971.95153,0.14476
2970.02294,0.14698
2968.09435,0.14923
2966.16577,0.15169
2964.23718,0.15414
2962.30859,0.15644
2960.38001,0.15853
2958.45142,0.16034
2956.52283,0.16195
2954.59425,0.16354
2952.66566,0.16521
2950.73708,0.16702
2948.80849,0.16904
2946.87990,0.17151
2944.95132,0.17458
2943.02273,0.17824
2941.09414,0.18236
2939.16556,0.18678
2937.23697,0.19144
2935.30838,0.19609
2933.37980,0.20056
2931.45121,0.20488
2929.52263,0.20874
2927.59404,0.21202
2925.66545,0.21451
2923.73687,0.21573
2921.80828,0.21562
2919.87969,0.21392
2917.95111,0.20982
2916.02252,0.20284
2914.09394,0.19409
2912.16535,0.18563
2910.23676,0.17860
2908.30818,0.17314
2906.37959,0.16881
2904.45100,0.16511
2902.52242,0.16184
2900.59383,0.15883
2898.66524,0.15613
2896.73666,0.15357
2894.80807,0.15093
2892.87949,0.14850
2890.95090,0.14635
2889.02231,0.14413
2887.09373,0.14196
2885.16514,0.14017
2883.23655,0.13870
2881.30797,0.13754
2879.37938,0.13678
2877.45080,0.13642
2875.52221,0.13638
2873.59362,0.13644
2871.66504,0.13654
2869.73645,0.13680
2867.80786,0.13736
2865.87928,0.13845
2863.95069,0.14040
2862.02210,0.14343
2860.09352,0.14761
2858.16493,0.15279
2856.23635,0.15811
2854.30776,0.16213
2852.37917,0.16352
2850.45059,0.16089
2848.52200,0.15358
2846.59341,0.14335
2844.66483,0.13313
2842.73624,0.12439
2840.80766,0.11710
2838.87907,0.11112
2836.95048,0.10629
2835.02190,0.10216
2833.09331,0.09878
2831.16472,0.09616
2829.23614,0.09387
2827.30755,0.09169
2825.37896,0.08962
2823.45038,0.08787
2821.52179,0.08625
2819.59321,0.08470
2817.66462,0.08350
2815.73603,0.08236
2813.80745,0.08116
2811.87886,0.08012
2809.95027,0.07916
2808.02169,0.07824
2806.09310,0.07735
2804.16451,0.07645
2802.23593,0.07557
2800.30734,0.07475
2798.37876,0.07395
2796.45017,0.07313
2794.52158,0.07241
2792.59300,0.07177
2790.66441,0.07114
2788.73582,0.07045
2786.80724,0.06980
2784.87865,0.06921
2782.95007,0.06865
2781.02148,0.06806
2779.09289,0.06749
2777.16431,0.06694
2775.23572,0.06638
2773.30713,0.06594
2771.37855,0.06549
2769.44996,0.06499
2767.52137,0.06450
2765.59279,0.06410
2763.66420,0.06373
2761.73562,0.06328
2759.80703,0.06284
2757.87844,0.06250
2755.94986,0.06223
2754.02127,0.06193
2752.09268,0.06153
2750.16410,0.06113
2748.23551,0.06077
2746.30693,0.06049
2744.37834,0.06021
2742.44975,0.05992
2740.52117,0.05969
2738.59258,0.05937
2736.66399,0.05897
2734.73541,0.05865
2732.80682,0.05830
2730.87823,0.05790
2728.94965,0.05756
2727.02106,0.05724
2725.09248,0.05686
2723.16389,0.05648
2721.23530,0.05611
2719.30672,0.05580
2717.37813,0.05551
2715.44954,0.05515
2713.52096,0.05472
2711.59237,0.05422
2709.66379,0.05382
2707.73520,0.05354
2705.80661,0.05320
2703.87803,0.05287
2701.94944,0.05257
2700.02085,0.05220
2698.09227,0.05189
2696.16368,0.05167
2694.23509,0.05134
2692.30651,0.05098
2690.37792,0.05069
2688.44934,0.05043
2686.52075,0.05022
2684.59216,0.05001
2682.66358,0.04978
2680.73499,0.04956
2678.80640,0.04925
2676.87782,0.04887
2674.94923,0.04852
2673.02064,0.04823
2671.09206,0.04796
2669.16347,0.04773
2667.23489,0.04748
2665.30630,0.04718
2663.37771,0.04691
2661.44913,0.04657
2659.52054,0.04623
2657.59195,0.04600
2655.66337,0.04578
2653.73478,0.04548
2651.80620,0.04520
2649.87761,0.04501
2647.94902,0.04472
2646.02044,0.04441
2644.09185,0.04426
2642.16326,0.04406
2640.23468,0.04370
2638.30609,0.04339
2636.37750,0.04317
2634.44892,0.04287
2632.52033,0.04256
2630.59175,0.04234
2628.66316,0.04211
2626.73457,0.04186
2624.80599,0.04153
2622.87740,0.04120
2620.94881,0.04092
2619.02023,0.04061
2617.09164,0.04032
2615.16306,0.04004
2613.23447,0.03972
2611.30588,0.03947
2609.37730,0.03921
2607.44871,0.03887
2605.52012,0.03860
2603.59154,0.03839
2601.66295,0.03815
2599.73436,0.03786
2597.80578,0.03750
2595.87719,0.03720
2593.94861,0.03695
2592.02002,0.03665
2590.09143,0.03632
2588.16285,0.03596
2586.23426,0.03567
2584.30567,0.03543
2582.37709,0.03511
2580.44850,0.03482
2578.51991,0.03460
2576.59133,0.03437
2574.66274,0.03404
2572.73416,0.03369
2570.80557,0.03344
2568.87698,0.03325
2566.94840,0.03301
2565.01981,0.03274
2563.09122,0.03242
2561.16264,0.03211
2559.23405,0.03187
2557.30547,0.03165
2555.37688,0.03142
2553.44829,0.03116
2551.51971,0.03085
2549.59112,0.03059
2547.66253,0.03041
2545.73395,0.03024
2543.80536,0.02996
2541.87677,0.02968
2539.94819,0.02942
2538.01960,0.02916
2536.09102,0.02888
2534.16243,0.02868
2532.23384,0.02861
2530.30526,0.02844
2528.37667,0.02811
2526.44808,0.02780
2524.51950,0.02758
2522.59091,0.02737
2520.66233,0.02704
2518.73374,0.02676
2516.80515,0.02652
2514.87657,0.02629
2512.94798,0.02609
2511.01939,0.02585
2509.09081,0.02553
2507.16222,0.02522
2505.23363,0.02497
2503.30505,0.02468
2501.37646,0.02442
2499.44788,0.02418
2497.51929,0.02391
2495.59070,0.02367
2493.66212,0.02345
2491.73353,0.02322
2489.80494,0.02289
2487.87636,0.02261
2485.94777,0.02240
2484.01919,0.02214
2482.09060,0.02193
2480.16201,0.02169
2478.23343,0.02139
2476.30484,0.02105
2474.37625,0.02081
2472.44767,0.02061
2470.51908,0.02026
2468.59049,0.01994
2466.66191,0.01970
2464.73332,0.01942
2462.80474,0.01916
2460.87615,0.01901
2458.94756,0.01879
2457.01898,0.01846
2455.09039,0.01819
2453.16180,0.01792
2451.23322,0.01765
2449.30463,0.01740
2447.37604,0.01711
2445.44746,0.01681
2443.51887,0.01655
2441.59029,0.01624
2439.66170,0.01601
2437.73311,0.01585
2435.80453,0.01560
2433.87594,0.01538
2431.94735,0.01517
2430.01877,0.01488
2428.09018,0.01467
2426.16160,0.01443
2424.23301,0.01412
2422.30442,0.01389
2420.37584,0.01369
2418.44725,0.01341
2416.51866,0.01310
2414.59008,0.01285
2412.66149,0.01265
2410.73290,0.01238
2408.80432,0.01206
2406.87573,0.01180
2404.94715,0.01161
2403.01856,0.01138
2401.08997,0.01118
2399.16139,0.01098
2397.23280,0.01073
2395.30421,0.01045
2393.37563,0.01024
2391.44704,0.01006
2389.51846,0.00986
2387.58987,0.00962
2385.66128,0.00937
2383.73270,0.00916
2381.80411,0.00895
2379.87552,0.00873
2377.94694,0.00847
2376.01835,0.00814
2374.08976,0.00776
2372.16118,0.00735
2370.23259,0.00696
2368.30401,0.00660
2366.37542,0.00630
2364.44683,0.00605
2362.51825,0.00574
2360.58966,0.00550
2358.66107,0.00535
2356.73249,0.00528
2354.80390,0.00529
2352.87532,0.00530
2350.94673,0.00542
2349.01814,0.00567
2347.08956,0.00564
2345.16097,0.00527
2343.23238,0.00496
2341.30380,0.00475
2339.37521,0.00459
2337.44662,0.00443
2335.51804,0.00421
2333.58945,0.00399
2331.66087,0.00376
2329.73228,0.00369
2327.80369,0.00376
2325.87511,0.00372
2323.94652,0.00364
2322.01793,0.00358
2320.08935,0.00350
2318.16076,0.00345
2316.23217,0.00346
2314.30359,0.00343
2312.37500,0.00332
2310.44642,0.00322
2308.51783,0.00318
2306.58924,0.00318
2304.66066,0.00312
2302.73207,0.00297
2300.80348,0.00284
2298.87490,0.00271
2296.94631,0.00260
2295.01773,0.00255
2293.08914,0.00256
2291.16055,0.00254
2289.23197,0.00244
2287.30338,0.00231
2285.37479,0.00215
2283.44621,0.00202
2281.51762,0.00196
2279.58903,0.00185
2277.66045,0.00178
2275.73186,0.00174
2273.80328,0.00165
2271.87469,0.00159
2269.94610,0.00148
2268.01752,0.00134
2266.08893,0.00126
2264.16034,0.00123
2262.23176,0.00121
2260.30317,0.00115
2258.37459,0.00104
2256.44600,0.00098
2254.51741,0.00100
2252.58883,0.00100
2250.66024,0.00092
2248.73165,0.00085
2246.80307,0.00083
2244.87448,0.00081
2242.94589,0.00078
2241.01731,0.00068
2239.08872,0.00062
2237.16014,0.00058
2235.23155,0.00052
2233.30296,0.00054
2231.37438,0.00050
2229.44579,0.00041
2227.51720,0.00038
2225.58862,0.00037
2223.66003,0.00038
2221.73145,0.00037
2219.80286,0.00033
2217.87427,0.00024
2215.94569,0.00014
2214.01710,0.00007
2212.08851,0.00003
2210.15993,-0.00001
2208.23134,-0.00008
2206.30275,-0.00012
2204.37417,-0.00013
2202.44558,-0.00007
2200.51700,-0.00004
2198.58841,-0.00009
2196.65982,-0.00005
2194.73124,-0.00000
2192.80265,-0.00005
2190.87406,-0.00005
2188.94548,-0.00002
2187.01689,0.00000
2185.08830,0.00004
2183.15972,0.00008
2181.23113,0.00010
2179.30255,0.00016
2177.37396,0.00019
2175.44537,0.00020
2173.51679,0.00022
2171.58820,0.00010
2169.65961,0.00000
2167.73103,0.00012
2165.80244,0.00028
2163.87386,0.00030
2161.94527,0.00027
2160.01668,0.00025
2158.08810,0.00022
2156.15951,0.00021
2154.23092,0.00022
2152.30234,0.00023
2150.37375,0.00022
2148.44516,0.00023
2146.51658,0.00023
2144.58799,0.00017
2142.65941,0.00017
2140.73082,0.00022
2138.80223,0.00024
2136.87365,0.00018
2134.94506,0.00008
2133.01647,0.00002
2131.08789,0.00000
2129.15930,0.00000
2127.23072,-0.00001
2125.30213,0.00002
2123.37354,0.00006
2121.44496,0.00005
2119.51637,0.00005
2117.58778,0.00002
2115.65920,-0.00001
2113.73061,-0.00001
2111.80202,0.00003
2109.87344,0.00007
2107.94485,0.00002
2106.01627,-0.00006
2104.08768,-0.00012
2102.15909,-0.00010
2100.23051,0.00002
2098.30192,0.00005
2096.37333,0.00001
2094.44475,-0.00003
2092.51616,0.00002
2090.58758,0.00008
2088.65899,0.00004
2086.73040,0.00005
2084.80182,0.00011
2082.87323,0.00007
2080.94464,0.00000
2079.01606,-0.00006
2077.08747,-0.00009
2075.15888,-0.00011
2073.23030,-0.00007
2071.30171,0.00001
2069.37313,-0.00002
2067.44454,-0.00009
2065.51595,-0.00007
2063.58737,-0.00009
2061.65878,-0.00015
2059.73019,-0.00016
2057.80161,-0.00011
2055.87302,-0.00006
2053.94443,-0.00005
2052.01585,-0.00004
2050.08726,-0.00003
2048.15868,0.00002
2046.23009,0.00014
2044.30150,0.00019
2042.37292,0.00021
2040.44433,0.00037
2038.51574,0.00055
2036.58716,0.00065
2034.65857,0.00083
2032.72999,0.00099
2030.80140,0.00109
2028.87281,0.00117
2026.94423,0.00120
2025.01564,0.00121
2023.08705,0.00127
2021.15847,0.00133
2019.22988,0.00131
2017.30129,0.00132
2015.37271,0.00142
2013.44412,0.00152
2011.51554,0.00157
2009.58695,0.00172
2007.65836,0.00187
2005.72978,0.00192
2003.80119,0.00203
2001.87260,0.00209
1999.94402,0.00203
1998.01543,0.00203
1996.08685,0.00205
1994.15826,0.00209
1992.22967,0.00202
1990.30109,0.00190
1988.37250,0.00189
1986.44391,0.00188
1984.51533,0.00181
1982.58674,0.00175
1980.65815,0.00174
1978.72957,0.00175
1976.80098,0.00170
1974.87240,0.00155
1972.94381,0.00144
1971.01522,0.00139
1969.08664,0.00128
1967.15805,0.00116
1965.22946,0.00101
1963.30088,0.00086
1961.37229,0.00078
1959.44371,0.00067
1957.51512,0.00054
1955.58653,0.00043
1953.65795,0.00037
1951.72936,0.00033
1949.80077,0.00030
1947.87219,0.00028
1945.94360,0.00026
1944.01501,0.00020
1942.08643,0.00006
1940.15784,0.00001
1938.22926,0.00002
1936.30067,0.00001
1934.37208,0.00004
1932.44350,0.00000
1930.51491,-0.00006
1928.58632,-0.00012
1926.65774,-0.00015
1924.72915,0.00000
1922.80056,0.00002
1920.87198,0.00002
1918.94339,0.00005
1917.01481,0.00000
1915.08622,0.00011
1913.15763,0.00038
1911.22905,0.00071
1909.30046,0.00107
1907.37187,0.00139
1905.44329,0.00179
1903.51470,0.00216
1901.58612,0.00245
1899.65753,0.00271
1897.72894,0.00302
1895.80036,0.00339
1893.87177,0.00363
1891.94318,0.00398
1890.01460,0.00426
1888.08601,0.00435
1886.15742,0.00453
1884.22884,0.00472
1882.30025,0.00492
1880.37167,0.00501
1878.44308,0.00502
1876.51449,0.00508
1874.58591,0.00511
1872.65732,0.00526
1870.72873,0.00535
1868.80015,0.00510
1866.87156,0.00469
1864.94298,0.00451
1863.01439,0.00427
1861.08580,0.00387
1859.15722,0.00347
1857.22863,0.00293
1855.30004,0.00242
1853.37146,0.00193
1851.44287,0.00155
1849.51428,0.00119
1847.58570,0.00088
1845.65711,0.00076
1843.72853,0.00026
1841.79994,0.00000
1839.87135,-0.00002
1837.94277,-0.00015
1836.01418,-0.00022
1834.08559,-0.00023
1832.15701,0.00008
1830.22842,0.00024
1828.29984,0.00032
1826.37125,0.00080
1824.44266,0.00123
1822.51408,0.00170
1820.58549,0.00224
1818.65690,0.00287
1816.72832,0.00368
1814.79973,0.00463
1812.87114,0.00577
1810.94256,0.00689
1809.01397,0.00808
1807.08539,0.00944
1805.15680,0.01099
1803.22821,0.01271
1801.29963,0.01442
1799.37104,0.01622
1797.44245,0.01826
1795.51387,0.02058
1793.58528,0.02292
1791.65669,0.02501
1789.72811,0.02733
1787.79952,0.03006
1785.87094,0.03261
1783.94235,0.03519
1782.01376,0.03784
1780.08518,0.04035
1778.15659,0.04287
1776.22800,0.04546
1774.29942,0.04807
1772.37083,0.05022
1770.44225,0.05230
1768.51366,0.05475
1766.58507,0.05704
1764.65649,0.05947
1762.72790,0.06181
1760.79931,0.06393
1758.87073,0.06651
1756.94214,0.06928
1755.01355,0.07221
1753.08497,0.07555
1751.15638,0.07900
1749.22780,0.08255
1747.29921,0.08652
1745.37062,0.09077
1743.44204,0.09521
1741.51345,0.09972
1739.58486,0.10399
1737.65628,0.10801
1735.72769,0.11182
1733.79911,0.11477
1731.87052,0.11744
1729.94193,0.12050
1728.01335,0.12312
1726.08476,0.12575
1724.15617,0.12834
1722.22759,0.13082
1720.29900,0.13375
1718.37041,0.13627
1716.44183,0.13821
1714.51324,0.14026
1712.58466,0.14250
1710.65607,0.14444
1708.72748,0.14605
1706.79890,0.14767
1704.87031,0.14892
1702.94172,0.15081
1701.01314,0.15271
1699.08455,0.15400
1697.15596,0.15634
1695.22738,0.15832
1693.29879,0.16028
1691.37021,0.16298
1689.44162,0.16526
1687.51303,0.16787
1685.58445,0.17041
1683.65586,0.17209
1681.72727,0.17447
1679.79869,0.17728
1677.87010,0.17993
1675.94152,0.18226
1674.01293,0.18431
1672.08434,0.18666
1670.15576,0.18875
1668.22717,0.19036
1666.29858,0.19219
1664.37000,0.19412
1662.44141,0.19537
1660.51282,0.19632
1658.58424,0.19731
1656.65565,0.19818
1654.72707,0.19911
1652.79848,0.19840
1650.86989,0.19784
1648.94131,0.19879
1647.01272,0.19894
1645.08413,0.19855
1643.15555,0.19862
1641.22696,0.19894
1639.29838,0.19927
1637.36979,0.19967
1635.44120,0.19944
1633.51262,0.19905
1631.58403,0.19941
1629.65544,0.19902
1627.72686,0.19798
1625.79827,0.19674
1623.86968,0.19508
1621.94110,0.19313
1620.01251,0.19176
1618.08393,0.19076
1616.15534,0.18865
1614.22675,0.18711
1612.29817,0.18605
1610.36958,0.18466
1608.44099,0.18340
1606.51241,0.18208
1604.58382,0.18093
1602.65524,0.17956
1600.72665,0.17816
1598.79806,0.17687
1596.86948,0.17555
1594.94089,0.17413
1593.01230,0.17261
1591.08372,0.17112
1589.15513,0.16943
1587.22654,0.16768
1585.29796,0.16564
1583.36937,0.16360
1581.44079,0.16156
1579.51220,0.15981
1577.58361,0.15827
1575.65503,0.15577
1573.72644,0.15410
1571.79785,0.15339
1569.86927,0.15215
1567.94068,0.15096
1566.01209,0.15042
1564.08351,0.14996
1562.15492,0.14986
1560.22634,0.14983
1558.29775,0.14845
1556.36916,0.14813
1554.44058,0.14849
1552.51199,0.14821
1550.58340,0.14809
1548.65482,0.14770
1546.72623,0.14739
1544.79765,0.14683
1542.86906,0.14606
1540.94047,0.14530
1539.01189,0.14343
1537.08330,0.14248
1535.15471,0.14205
1533.22613,0.14089
1531.29754,0.13970
1529.36895,0.13876
1527.44037,0.13764
1525.51178,0.13651
1523.58320,0.13617
1521.65461,0.13583
1519.72602,0.13569
1517.79744,0.13631
1515.86885,0.13639
1513.94026,0.13538
1512.01168,0.13350
1510.08309,0.13132
1508.15451,0.12910
1506.22592,0.12539
1504.29733,0.12157
1502.36875,0.11873
1500.44016,0.11542
1498.51157,0.11175
1496.58299,0.10786
1494.65440,0.10421
1492.72581,0.10174
1490.79723,0.09949
1488.86864,0.09723
1486.94006,0.09562
1485.01147,0.09456
1483.08288,0.09428
1481.15430,0.09461
1479.22571,0.09562
1477.29712,0.09757
1475.36854,0.10040
1473.43995,0.10456
1471.51137,0.10991
1469.58278,0.11571
1467.65419,0.12072
1465.72561,0.12355
1463.79702,0.12486
1461.86843,0.12576
1459.93985,0.12676
1458.01126,0.12757
1456.08267,0.12777
1454.15409,0.12828
1452.22550,0.12863
1450.29692,0.12849
1448.36833,0.12802
1446.43974,0.12728
1444.51116,0.12688
1442.58257,0.12664
1440.65398,0.12653
1438.72540,0.12654
1436.79681,0.12636
1434.86822,0.12637
1432.93964,0.12681
1431.01105,0.12720
1429.08247,0.12740
1427.15388,0.12777
1425.22529,0.12826
1423.29671,0.12883
1421.36812,0.12935
1419.43953,0.12926
1417.51095,0.12901
1415.58236,0.12915
1413.65378,0.12905
1411.72519,0.12858
1409.79660,0.12810
1407.86802,0.12777
1405.93943,0.12742
1404.01084,0.12682
1402.08226,0.12639
1400.15367,0.12578
1398.22508,0.12468
1396.29650,0.12374
1394.36791,0.12288
1392.43933,0.12215
1390.51074,0.12177
1388.58215,0.12140
1386.65357,0.12065
1384.72498,0.12003
1382.79639,0.12041
1380.86781,0.12117
1378.93922,0.12147
1377.01064,0.12121
1375.08205,0.12039
1373.15346,0.11927
1371.22488,0.11816
1369.29629,0.11697
1367.36770,0.11571
1365.43912,0.11441
1363.51053,0.11288
1361.58194,0.11145
1359.65336,0.11034
1357.72477,0.10933
1355.79619,0.10843
1353.86760,0.10764
1351.93901,0.10694
1350.01043,0.10627
1348.08184,0.10565
1346.15325,0.10499
1344.22467,0.10431
1342.29608,0.10377
1340.36750,0.10327
1338.43891,0.10278
1336.51032,0.10236
1334.58174,0.10208
1332.65315,0.10188
1330.72456,0.10161
1328.79598,0.10130
1326.86739,0.10099
1324.93880,0.10058
1323.01022,0.10011
1321.08163,0.09974
1319.15305,0.09946
1317.22446,0.09919
1315.29587,0.09891
1313.36729,0.09850
1311.43870,0.09808
1309.51011,0.09777
1307.58153,0.09755
1305.65294,0.09742
1303.72435,0.09732
1301.79577,0.09721
1299.86718,0.09723
1297.93860,0.09751
1296.01001,0.09783
1294.08142,0.09824
1292.15284,0.09892
1290.22425,0.09967
1288.29566,0.10053
1286.36708,0.10162
1284.43849,0.10286
1282.50991,0.10421
1280.58132,0.10565
1278.65273,0.10711
1276.72415,0.10868
1274.79556,0.11020
1272.86697,0.11166
1270.93839,0.11338
1269.00980,0.11511
1267.08121,0.11666
1265.15263,0.11833
1263.22404,0.12012
1261.29546,0.12202
1259.36687,0.12428
1257.43828,0.12718
1255.50970,0.13062
1253.58111,0.13429
1251.65252,0.13827
1249.72394,0.14250
1247.79535,0.14678
1245.86677,0.15104
1243.93818,0.15507
1242.00959,0.15879
1240.08101,0.16228
1238.15242,0.16550
1236.22383,0.16848
1234.29525,0.17127
1232.36666,0.17373
1230.43807,0.17597
1228.50949,0.17810
1226.58090,0.17993
1224.65232,0.18162
1222.72373,0.18331
1220.79514,0.18486
1218.86656,0.18630
1216.93797,0.18769
1215.00938,0.18900
1213.08080,0.19008
1211.15221,0.19102
1209.22363,0.19222
1207.29504,0.19359
1205.36645,0.19469
1203.43787,0.19549
1201.50928,0.19624
1199.58069,0.19714
1197.65211,0.19812
1195.72352,0.19892
1193.79493,0.19963
1191.86635,0.20052
1189.93776,0.20171
1188.00918,0.20280
1186.08059,0.20387
1184.15200,0.20529
1182.22342,0.20679
1180.29483,0.20843
1178.36624,0.21047
1176.43766,0.21252
1174.50907,0.21446
1172.58048,0.21667
1170.65190,0.21909
1168.72331,0.22144
1166.79473,0.22393
1164.86614,0.22633
1162.93755,0.22837
1161.00897,0.23000
1159.08038,0.23095
1157.15179,0.23168
1155.22321,0.23253
1153.29462,0.23349
1151.36604,0.23465
1149.43745,0.23597
1147.50886,0.23741
1145.58028,0.23904
1143.65169,0.24118
1141.72310,0.24356
1139.79452,0.24600
1137.86593,0.24870
1135.93734,0.25157
1134.00876,0.25497
1132.08017,0.25832
1130.15159,0.26111
1128.22300,0.26466
1126.29441,0.26928
1124.36583,0.27389
1122.43724,0.27827
1120.50865,0.28249
1118.58007,0.28694
1116.65148,0.29212
1114.72290,0.29738
1112.79431,0.30272
1110.86572,0.30811
1108.93714,0.31299
1107.00855,0.31790
1105.07996,0.32261
1103.15138,0.32651
1101.22279,0.32953
1099.29420,0.33164
1097.36562,0.33305
1095.43703,0.33421
1093.50845,0.33509
1091.57986,0.33489
1089.65127,0.33420
1087.72269,0.33380
1085.79410,0.33316
1083.86551,0.33207
1081.93693,0.33050
1080.00834,0.32870
1078.07976,0.32712
1076.15117,0.32585
1074.22258,0.32455
1072.29400,0.32304
1070.36541,0.32143
1068.43682,0.31986
1066.50824,0.31842
1064.57965,0.31695
1062.65106,0.31522
1060.72248,0.31327
1058.79389,0.31109
1056.86531,0.30858
1054.93672,0.30617
1053.00813,0.30417
1051.07955,0.30243
1049.15096,0.30125
1047.22237,0.30062
1045.29379,0.30041
1043.36520,0.30057
1041.43661,0.30104
1039.50803,0.30158
1037.57944,0.30191
1035.65086,0.30201
1033.72227,0.30140
1031.79368,0.29998
1029.86510,0.29777
1027.93651,0.29454
1026.00792,0.29095
1024.07934,0.28755
1022.15075,0.28416
1020.22217,0.28053
1018.29358,0.27703
1016.36499,0.27385
1014.43641,0.27050
1012.50782,0.26678
1010.57923,0.26308
1008.65065,0.25936
1006.72206,0.25511
1004.79347,0.25059
1002.86489,0.24595
1000.93630,0.24095
999.00772,0.23576
997.07913,0.23044
995.15054,0.22522
993.22196,0.21998
991.29337,0.21468
989.36478,0.20917
987.43620,0.20299
985.50761,0.19668
983.57903,0.19032
981.65044,0.18360
979.72185,0.17646
977.79327,0.16885
975.86468,0.16124
973.93609,0.15351
972.00751,0.14578
970.07892,0.13848
968.15033,0.13146
966.22175,0.12482
964.29316,0.11901
962.36458,0.11397
960.43599,0.10913
958.50740,0.10485
956.57882,0.10142
954.65023,0.09821
952.72164,0.09520
950.79306,0.09251
948.86447,0.09020
946.93589,0.08850
945.00730,0.08736
943.07871,0.08621
941.15013,0.08474
939.22154,0.08343
937.29295,0.08226
935.36437,0.08113
933.43578,0.07991
931.50719,0.07840
929.57861,0.07724
927.65002,0.07652
925.72144,0.07602
923.79285,0.07554
921.86426,0.07493
919.93568,0.07457
918.00709,0.07425
916.07850,0.07376
914.14992,0.07309
912.22133,0.07182
910.29274,0.06955
908.36416,0.06627
906.43557,0.06246
904.50699,0.05828
902.57840,0.05371
900.64981,0.04924
898.72123,0.04532
896.79264,0.04156
894.86405,0.03785
892.93547,0.03481
891.00688,0.03218
889.07830,0.02965
887.14971,0.02743
885.22112,0.02502
883.29254,0.02235
881.36395,0.01997
879.43536,0.01782
877.50678,0.01569
875.57819,0.01378
873.64960,0.01206
871.72102,0.01013
869.79243,0.00812
867.86385,0.00642
865.93526,0.00480
864.00667,0.00318
862.07809,0.00203
860.14950,0.00126
858.22091,0.00068
856.29233,0.00038
854.36374,0.00000
852.43516,-0.00019
850.50657,0.00027
848.57798,0.00071
846.64940,0.00152
844.72081,0.00304
842.79222,0.00512
840.86364,0.00772
838.93505,0.01049
837.00646,0.01325
835.07788,0.01541
833.14929,0.01737
831.22071,0.01968
829.29212,0.02122
827.36353,0.02211
825.43495,0.02312
823.50636,0.02374
821.57777,0.02401
819.64919,0.02479
817.72060,0.02582
815.79201,0.02715
813.86343,0.02933
811.93484,0.03143
810.00626,0.03379
808.07767,0.03751
806.14908,0.04226
804.22050,0.04698
802.29191,0.05002
800.36332,0.05110
798.43474,0.05068
796.50615,0.04843
794.57757,0.04480
792.64898,0.04114
790.72039,0.03850
788.79181,0.03660
786.86322,0.03533
784.93463,0.03486
783.00605,0.03489
781.07746,0.03501
779.14887,0.03395
777.22029,0.03111
775.29170,0.02708
773.36312,0.02285
771.43453,0.01927
769.50594,0.01649
767.57736,0.01479
765.64877,0.01367
763.72018,0.01296
761.79160,0.01333
759.86301,0.01363
757.93443,0.01349
756.00584,0.01363
754.07725,0.01343
752.14867,0.01311
750.22008,0.01272
748.29149,0.01121
746.36291,0.00938
744.43432,0.00831
742.50573,0.00741
740.57715,0.00597
738.64856,0.00431
736.71998,0.00305
734.79139,0.00208
732.86280,0.00152
730.93422,0.00126
729.00563,0.00101
727.07704,0.00122
725.14846,0.00162
723.21987,0.00202
721.29129,0.00224
719.36270,0.00168
717.43411,0.00056
715.50553,-0.00063
713.57694,-0.00122
711.64835,-0.00116
709.71977,-0.00067
707.79118,0.00008
705.86259,0.00127
703.93401,0.00339
702.00542,0.00556
700.07684,0.00776
698.14825,0.01065
696.21966,0.01294
694.29108,0.01274
692.36249,0.01019
690.43390,0.00765
688.50532,0.00614
686.57673,0.00472
684.64814,0.00332
682.71956,0.00282
680.79097,0.00279
678.86239,0.00198
676.93380,0.00116
675.00521,0.00082
673.07663,0.00041
671.14804,0.00021
669.21945,-0.00023
667.29087,-0.00055
665.36228,-0.00009
663.43370,-0.00001
661.50511,-0.00017
659.57652,0.00000
657.64794,0.00037
655.71935,0.00085
653.79076,0.00098
651.86218,0.00133
649.93359,0.00204
648.00500,0.00287
646.07642,0.00351
644.14783,0.00368
642.21925,0.00460
640.29066,0.00523
638.36207,0.00465
636.43349,0.00445
634.50490,0.00459
632.57631,0.00508
630.64773,0.00612
628.71914,0.00720
626.79056,0.00833
624.86197,0.00944
622.93338,0.00947
621.00480,0.00935
619.07621,0.01076
617.14762,0.01167
615.21904,0.01225
613.29045,0.01422
611.36186,0.01593
609.43328,0.01656
607.50469,0.01715
605.57611,0.01803
603.64752,0.01879
601.71893,0.01958
599.79035,0.02055
597.86176,0.02263
595.93317,0.02456
594.00459,0.02529
592.07600,0.02799
590.14742,0.03164
588.21883,0.03432
586.29024,0.03727
584.36166,0.04038
582.43307,0.04248
580.50448,0.04414
578.57590,0.04820
576.64731,0.05237
574.71872,0.05499
572.79014,0.05783
570.86155,0.06036
568.93297,0.06377
567.00438,0.06769
565.07579,0.07169
563.14721,0.07647
561.21862,0.08058
559.29003,0.08358
557.36145,0.08649
555.43286,0.08995
553.50427,0.09294
551.57569,0.09589
549.64710,0.09895
547.71852,0.10140
545.78993,0.10451
543.86134,0.10880
541.93276,0.11357
540.00417,0.11757
538.07558,0.12083
536.14700,0.12359
534.21841,0.12758
532.28983,0.13165
530.36124,0.13038
528.43265,0.12752
526.50407,0.12734
524.57548,0.12689
522.64689,0.12453
520.71831,0.12177
518.78972,0.11890
516.86113,0.11365
514.93255,0.10953
513.00396,0.10809
511.07538,0.10537
509.14679,0.10137
507.21820,0.09969
505.28962,0.10119
503.36103,0.10114
501.43244,0.10125
499.50386,0.10339
497.57527,0.10788
495.64669,0.11572
493.71810,0.12160
491.78951,0.12964
489.86093,0.14049
487.93234,0.14911
486.00375,0.15827
484.07517,0.16931
482.14658,0.18273
480.21799,0.19189
478.28941,0.19892
476.36082,0.20708
474.43224,0.20726
472.50365,0.20321
470.57506,0.20337
468.64648,0.20340
466.71789,0.19512
464.78930,0.18638
462.86072,0.17933
460.93213,0.16842
459.00355,0.15472
457.07496,0.14026
455.14637,0.13270
453.21779,0.12823
451.28920,0.11926
449.36061,0.10840
447.43203,0.10194
445.50344,0.09665
443.57485,0.08833
441.64627,0.08487
439.71768,0.08400
437.78910,0.08133
435.86051,0.07932
433.93192,0.07768
432.00334,0.07636
430.07475,0.07280
428.14616,0.06571
426.21758,0.05970
424.28899,0.05615
422.36040,0.05588
420.43182,0.05915
418.50323,0.05570
416.57465,0.04709
414.64606,0.03686
412.71747,0.02778
410.78889,0.02425
408.86030,0.01725
406.93171,0.01134
405.00313,0.00520
403.07454,0.00000
401.14596,-0.00059
399.21737,0.00000
